111,0,4.677467864185461
112,0,9.86949700353579
113,0,1.2192959530601422
114,0,2.9747971134506157
115,0,8.662961194438235
116,0,5.6746470958593775
117,0,1.9727522041703693
118,0,7.587175825592554
119,0,6.608660638249608
120,0,3.638986601683294
121,0,1.963262289153196
122,0,9.075053367858693
123,0,2.625112054586829
124,0,9.847397019440876
125,0,1.4661927273210296
126,0,6.888623730157343
127,0,5.383930336792353
128,0,3.58753710265457
129,0,6.415923567479971
130,0,8.627466127302654
131,0,0.8453600726995569
132,0,5.713208146528399
133,0,5.994637154799811
134,0,7.455408228263874
135,0,3.47321808002905
136,0,5.854696574696339
137,0,8.1842245001285
138,0,4.8092749690709
139,0,7.178707259518486
140,0,7.469689193554592
141,0,6.36951288179289
142,0,9.308797058043323
143,0,6.024055292182702
144,0,3.3621753864916615
145,0,9.378438276245017
146,0,2.44737934618827
147,0,5.486644817366127
148,0,1.563914543285121
149,0,1.2423202194982919
150,0,1.4279056493451137
151,0,1.404224749183014
152,0,7.661449626853463
153,0,2.83102355740533
154,0,9.24249455683225
155,0,6.154326467919136
156,0,6.689870182124313
157,0,7.497882289976701
158,0,7.318530901867996
159,0,3.922830078591697
160,0,4.300379385832221
161,0,3.3832745109789797
162,0,2.113388844591495
163,0,3.8117706825514763
164,0,1.8723040464262786
165,0,5.269998053915139
166,0,8.748338776393407
167,0,4.194666382362557
168,0,2.180114404053899
169,0,2.5740016870513927
170,0,5.983178536407925
171,0,3.843295251365846
172,0,6.280174681697703
173,0,0.6199595959376669
174,0,7.011512650165528
175,0,1.891455113870446
176,0,4.559630116797086
177,0,2.507096552227106
178,0,5.330675527811248
179,0,3.612168525020132
180,0,7.528144217643586
181,0,1.3025554902722658
182,0,5.217645636043029
183,0,7.804376347933242
184,0,6.531134720040573
185,0,0.6169062070415166
186,0,6.043117280587255
187,0,3.9791237592549855
188,0,8.549502071541779
189,0,5.4132917038670625
190,0,4.731097413879897
191,0,9.16268837219532
192,0,1.3556747148822978
193,0,2.540564664906926
194,0,6.288038209389464
195,0,2.5116188905079273
196,0,3.143932450494724
197,0,0.42873156623514985
198,0,9.020918293008393
199,0,7.947155420639347
200,0,0.4571713794041088
201,0,1.272829623550935
202,0,4.244798755009967
203,0,4.941549537470362
204,0,1.3848426255932722
205,0,8.833985029869888
206,0,6.155497267629442
207,0,5.67645899434523
208,0,4.483514418875092
209,0,7.609068310642804
210,0,9.96686376244583
211,0,6.689929471742547
212,0,5.054452219068821
213,0,2.9657761836156338
214,0,6.723142147911072
215,0,9.529295060838901
216,0,5.570454380746279
217,0,5.192189186383224
218,0,9.164043520149542
219,0,4.830145937522808
220,0,0.11970826510920185
221,0,6.659866360868771
222,0,8.937659625136156
223,0,0.690519060563366
224,0,5.451677436664994
225,0,3.4496638292788595
226,0,7.451751740228357
227,0,5.522760655403465
228,0,0.3699984906951337
229,0,8.133979235494593
230,0,6.608562993051709
231,0,4.998775752628637
232,0,3.938570851635246
233,0,1.7609753747931145
234,0,2.18560992836182
235,0,1.5268209480751382
236,0,4.995779315976145
237,0,9.119609228875136
238,0,6.622828538984797
239,0,7.0090245622018195
240,0,8.818410612390238
241,0,7.344705977746502
242,0,2.2774796539221254
243,0,9.455323760736917
244,0,4.9714180409332664
245,0,6.464853476692369
246,0,4.197511308304702
247,0,3.838115542707856
248,0,7.759389651880406
249,0,8.51043997908622
250,0,1.9492354179128801
251,0,1.0039769930036835
252,0,8.407185074982834
253,0,4.461762591709406
254,0,3.614410131831385
255,0,2.2321010735258473
256,0,7.253597195902087
257,0,8.683380756165601
258,0,3.068151666976202
259,0,3.7811910363273205
260,0,6.602305803750248
261,0,6.5056841786182655
262,0,0.07852560632941596
263,0,7.443777443966062
264,0,7.086918400048057
265,0,6.269303167316213
266,0,2.1665646247234083
267,0,8.647184718105764
268,0,6.401113616136582
269,0,8.911152606023645
270,0,9.067983254166963
271,0,2.5559059410746543
272,0,7.249693949020277
273,0,9.842703356419158
274,0,5.44842813666582
275,0,3.512118055564999
276,0,7.49118736634971
277,0,1.521478597358068
278,0,8.721074194021785
279,0,1.0043118894987035
280,0,9.882881920632531
281,0,1.940825977848737
282,0,5.437794065116394
283,0,4.677506448435467
284,0,5.0380438400780525
285,0,6.95860775835672
286,0,8.221492621286966
287,0,1.3965812493395768
288,0,8.561237056608899
289,0,2.6739510736334116
290,0,6.131112592602119
291,0,0.4360781035450656
292,0,1.9086404470909457
293,0,9.163791916259408
294,0,7.14269092571379
295,0,3.2386363234594318
296,0,1.9177184493568245
297,0,5.134227129471292
298,0,1.9068247203647415
299,0,1.7641015285031014
300,0,8.50383730741834
301,0,0.9464775613951604
302,0,5.236208771894873
303,0,9.593036675986662
304,0,0.6989066418563117
305,0,2.502325347158587
306,0,0.02296485701320572
307,0,0.7083622493484398
308,0,8.635372890350705
309,0,6.181695840544861
310,0,8.912496154522811
311,0,1.8761924395106488
312,0,7.872784275755434
313,0,1.4580271992585292
314,0,8.734936952923356
315,0,9.644049462755827
316,0,7.135674505593226
317,0,4.4344928199030615
318,0,2.27600930924049
319,0,4.718075036247176
320,0,1.8993188619556767
321,0,4.3561859738917015
322,0,9.669700453826364
323,0,3.945512757907881
324,0,4.537815929531364
325,0,1.8696966719197938
326,0,9.155467383521989
327,0,8.311863026842293
328,0,3.144387522897103
329,0,7.113025424187129
330,0,7.522077741889596
331,0,1.549839159313391
332,0,1.8042728726458468
333,0,4.220364566861948
334,0,1.307120785578959
335,0,2.3757486868520306
336,0,4.346830187723761
337,0,4.4678451212263015
338,0,4.327673259808959
339,0,7.527144980127027
340,0,4.244658662095149
341,0,0.7494935356880683
342,0,2.1329215593190765
343,0,6.582028333984349
344,0,6.5834345967748735
345,0,2.2975018348030085
346,0,1.3500543722719516
347,0,1.835735098611575
348,0,1.754892024287178
349,0,5.58134025406035
350,0,4.393898036624638
351,0,8.773172041649516
352,0,3.846234020800252
353,0,8.152015592499712
354,0,6.570549136726536
355,0,1.6599766303831376
356,0,7.382619672952142
357,0,7.015277320014659
358,0,0.35395625233559436
359,0,0.5832895099247803
360,0,0.9837557319805978
361,0,0.9155523809318344
362,0,9.918000640929204
363,0,4.890404453745257
364,0,9.59310228591223
365,0,3.708970352741119
366,0,1.0690756897451692
367,0,6.6221093208120685
368,0,8.158886889116362
369,0,0.5132060706790331
370,0,2.0678018455993907
371,0,4.144699963917122
372,0,5.7907209302903695
373,0,2.100584264312144
374,0,5.553232654083946
375,0,0.45907460238620024
376,0,7.855732799256097
377,0,0.46852682319092676
378,0,1.4815830021700327
379,0,4.165749869853657
380,0,6.340349824624889
381,0,8.552202070630353
382,0,2.3689666581564306
383,0,8.658597748189717
384,0,0.8041003256583235
385,0,3.910162028091402
386,0,6.921226687894155
387,0,6.48233943046894
388,0,5.074877241693658
389,0,1.2085476280546148
390,0,9.646442429662017
391,0,9.738299927232868
392,0,0.9947575199698533
393,0,3.519494208212093
394,0,6.592112684963151
395,0,6.739409409280437
396,0,5.407334036007574
397,0,2.444435472010351
398,0,3.9805934629332973
399,0,1.1865905163847912
400,0,6.253133842618819
401,0,1.6321558865610797
402,0,8.989759013056373
403,0,0.9868369561449386
404,0,7.779125237232498
405,0,6.310808062134905
406,0,6.3315972906496025
407,0,2.4328556557831083
408,0,8.949003784387708
409,0,2.9302734898462446
410,0,5.660445983303126
411,0,5.560586851537019
412,0,9.462410121000634
413,0,9.837314522317829
414,0,7.103556078815485
415,0,1.889075629007353
416,0,9.291677960869833
417,0,3.148220242465938
418,0,4.601443747697466
419,0,4.838103496272517
420,0,9.993085794928039
421,0,7.8193334310500955
422,0,1.566200404890632
423,0,9.91389884612108
424,0,2.9973871698938037
425,0,2.5626646770048644
426,0,3.403144303008423
427,0,5.176673615381384
428,0,0.09765007483322874
429,0,0.6643421574650299
430,0,6.962123668141689
431,0,0.034064817669061664
432,0,4.89703632761411
433,0,8.754231471567467
434,0,2.4742312825740576
435,0,2.1556555125339116
436,0,6.005867206119682
437,0,1.4249629275164954
438,0,1.3622970850886307
439,0,0.2970922051160185
440,0,2.2358645334328475
441,0,3.832118943060141
442,0,4.045621439428646
443,0,9.385176849500422
444,0,0.49304438428744657
445,0,5.576916272277139
446,0,9.178778420348126
447,0,9.754005212107668
448,0,6.1377058851087485
449,0,5.566401284122133
450,0,8.083094198713221
451,0,9.910690473120173
452,0,2.5923150080605017
453,0,5.177632846865665
454,0,3.979676529734959
455,0,8.68211537218456
456,0,4.87649056807451
457,0,1.1607703526332958
458,0,4.417332487445718
459,0,6.331956157145735
460,0,4.575151978418386
461,0,0.08010128997205435
462,0,7.7703317346613705
463,0,8.56861844536018
464,0,1.209907547047897
465,0,8.678037056416546
466,0,7.1530145024869185
467,0,4.351804285876453
468,0,6.922574533630699
469,0,8.107932888678844
470,0,0.0660961823993067
471,0,3.852421849702563
472,0,1.387085023675827
473,0,3.4249402149144315
474,0,0.32176671584851935
475,0,0.8643237207669707
476,0,7.425128966743282
477,0,4.417301235376976
478,0,1.0736332297554974
479,0,2.002963242989295
480,0,5.480716994294301
481,0,0.9237690674250865
482,0,9.569888632197149
483,0,5.060748322090721
484,0,3.892316924605883
485,0,5.960469817443301
486,0,8.830217240610189
487,0,6.354368739721252
488,0,9.86914126202553
489,0,6.363368020015658
490,0,5.302055897103786
491,0,1.6727209815724708
492,0,5.239991151271202
493,0,8.852596647750525
494,0,7.928210117148488
495,0,3.6092692064188148
496,0,5.409850016845952
497,0,8.655986839726346
498,0,6.664679038650978
499,0,8.586699575456798
500,0,1.692924919090082
501,0,4.775601079565113
502,0,3.62928993067521
503,0,8.689484562983106
504,0,9.774833287366702
505,0,9.585578223543985
506,0,9.547896362878646
507,0,4.78006420350966
508,0,8.760620869987495
509,0,1.451657708728531
510,0,9.986963545797877
511,0,8.32744128852599
512,0,8.092283651082724
513,0,9.132033813746574
514,0,6.700775089630406
515,0,2.1757274400346627
516,0,1.8394061326056388
517,0,7.650821038842279
518,0,7.737741669929421
519,0,2.3605754675416257
520,0,2.5962349402566343
521,0,8.837850820990036
522,0,4.661836433780165
523,0,9.1315334880405
524,0,1.2916859961634475
525,0,4.4996508764932175
526,0,2.3487668391511707
527,0,4.207419327677853
528,0,4.25381807349646
529,0,8.50685223280253
530,0,1.2070914161042068
531,0,4.088441950919597
532,0,2.9913463948632035
533,0,6.951372128869766
534,0,8.026491627579277
535,0,3.7648488438485828
536,0,0.7047960118802399
537,0,9.47998106879108
538,0,3.2049950338616973
539,0,4.296386005605348
540,0,9.566585771226991
541,0,8.862927537393281
542,0,0.01062284351195597
543,0,6.624484412455097
544,0,5.273701170559102
545,0,9.962960265599179
546,0,4.5510495293460345
547,0,3.4900996965815345
548,0,2.0096303460595855
549,0,3.743244660898377
550,0,2.4155739763120243
551,0,4.7042228021138
552,0,9.761719388723773
553,0,7.295236863604924
554,0,2.4019998235218254
555,0,3.2700035909083836
556,0,1.7704084683156385
557,0,4.55964331687797
558,0,0.4180971689628765
559,0,7.184695945538673
560,0,4.310925989518499
561,0,2.1326409986363015
562,0,6.575400757443215
563,0,5.679647995468244
564,0,9.790910201100385
565,0,1.4117602254504535
566,0,0.6579873634093603
567,0,8.159391750183055
568,0,9.692876600203137
569,0,6.507882542651158
570,0,9.292115808235868
571,0,0.01694952643343628
572,0,8.729572533439786
573,0,7.037191890188666
574,0,5.218707242851572
575,0,7.76522751645701
576,0,5.737162898378834
577,0,5.361318305888996
578,0,8.759169559287423
579,0,2.9389871761531006
580,0,1.7639535952286534
581,0,2.573067135129179
582,0,8.234163216506708
583,0,8.71111547612259
584,0,7.871823032883379
585,0,0.5898977518531234
586,0,3.1723422914197275
587,0,3.579000261103009
588,0,4.558295598693476
589,0,5.682587317843968
590,0,3.9490705766464096
591,0,4.867047709286911
592,0,8.891943665844282
593,0,8.486770719614169
594,0,8.999301029854756
595,0,9.38027955129094
596,0,0.22552022489855217
597,0,6.371381687866338
598,0,3.6100148908053753
599,0,9.864556807911594
600,0,2.6656292605898413
601,0,9.812639073960199
602,0,1.703308320501964
603,0,9.043778437989516
604,0,6.180285597965551
605,0,2.2821512998441085
606,0,8.816958991479888
607,0,1.7821406865117373
608,0,7.918952734043887
609,0,0.49941888046813876
610,0,1.908820824112143
611,0,7.000717591192904
612,0,1.6520746500653494
613,0,8.977751120259256
614,0,1.3151191836592702
615,0,9.757559586816129
616,0,0.35357334383022243
617,0,3.699884034904164
618,0,8.35066617692776
619,0,3.9426552486783373
620,0,0.28796280950823094
621,0,0.07759736059822275
622,0,6.514259131515823
623,0,4.253622050665173
624,0,2.8248185034237028
625,0,1.784404558609849
626,0,6.500487046275252
627,0,3.871812712638667
628,0,0.30560345689930823
629,0,6.8980083817309605
630,0,9.65528518152035
631,0,3.866406852628792
632,0,2.670525096105336
633,0,2.602507342684701
634,0,0.29755116142582194
635,0,6.5047894581978145
636,0,4.877980789092707
637,0,6.477891801340807
638,0,3.148537323285927
639,0,0.8646677593985852
640,0,8.389359981103254
641,0,7.357041337928796
642,0,5.533299330648727
643,0,2.7336614767289413
644,0,8.518619622619868
645,0,1.4715274901289255
646,0,4.0104551290819535
647,0,0.32896315407720644
648,0,9.580525884009031
649,0,8.177584616676889
650,0,9.15990448739157
651,0,8.845002470921049
652,0,8.862787387114379
653,0,7.2480770619823005
654,0,6.724744994584371
655,0,1.8402781836594828
656,0,4.446265636514816
657,0,0.25466125596070865
658,0,1.052507672692693
659,0,6.157603868472514
660,0,3.041354168824295
661,0,9.81116911083027
662,0,4.670825905109908
663,0,5.737459800902915
664,0,0.21460518265718598
665,0,6.072921813040477
666,0,9.952267859163031
667,0,4.1002798698721765
668,0,8.691474537782772
669,0,0.9700139548411957
670,0,2.2200715472070764
671,0,0.08798615193547521
672,0,7.584267820885273
673,0,8.351438146264456
674,0,2.6908461144384943
675,0,6.921068579047491
676,0,5.219834374431597
677,0,7.203002632174805
678,0,0.5742731106645715
679,0,9.197020966818503
680,0,3.5564419570638584
681,0,9.473669840883431
682,0,1.5970009632215465
683,0,4.34073532690745
684,0,8.288642856300232
685,0,2.2172469083611834
686,0,2.1580765946030933
687,0,9.898583826625655
688,0,2.819742571871462
689,0,3.836543371423742
690,0,2.754705458018334
691,0,8.326610259741816
692,0,3.401467524234598
693,0,0.6894440372076538
694,0,3.4891475732699306
695,0,0.038799382933794035
696,0,1.4078694472582143
697,0,3.2696336101633205
698,0,9.998464026950186
699,0,9.172345728320963
700,0,2.143272328614889
701,0,1.3124811534512437
702,0,2.7111128816767893
703,0,8.466254157296353
704,0,9.506609896170058
705,0,3.2074897298784566
706,0,9.175057763421119
707,0,7.867483429531104
708,0,7.360016852098051
709,0,0.5517893803110141
710,0,9.705121862817412
711,0,7.981953891098428
712,0,3.6575310375349135
713,0,6.803164779521906
714,0,6.663607773919149
715,0,3.109740368751812
716,0,5.956951963933667
717,0,5.547502459393387
718,0,2.065487069104184
719,0,3.014594278216718
720,5,5.531641190464476
721,5,5.07419020559716
722,5,0.784649962666979
723,5,0.02112458216781299
724,5,2.4908806911854953
725,5,1.8910849800017204
726,5,7.921552385232509
727,5,9.266904702384327
728,5,8.230105588481502
729,5,0.2817311544824186
730,5,0.7075533625155694
731,5,3.7381032602819153
732,5,9.387420108511053
733,5,1.7571336175154162
734,5,6.617855381923674
735,5,4.678748782456303
736,5,1.5809094478875108
737,5,8.115544991963402
738,5,2.1607361031469807
739,5,5.583333328759334
740,5,9.154605064062839
741,5,3.917167191153663
742,5,1.6560669451683174
743,5,3.829499688792597
744,5,3.081363470083942
745,5,6.485113552476287
746,5,4.394298310378164
747,5,8.712130829173294
748,5,4.631180586131556
749,5,4.079312989039108
750,5,9.395753063304717
751,5,6.955288848408561
752,5,3.9670898347815364
753,5,6.220226626539707
754,5,9.079624501794079
755,5,2.2078219791330644
756,75,5.888744919594036
757,189,9.339523619610443
758,333,1.6403225816931744
759,495,3.513136650550903
760,651,6.939515777471712
761,793,7.95378344055059
762,894,6.515387133406798
763,955,2.8820587907328266
764,969,7.072551669593481
765,933,0.11923909079081918
766,856,0.6604762697674715
767,745,9.98132696550958
768,610,4.601170951863769
769,475,0.13174930909658267
770,345,3.4345354208559975
771,241,8.32103312814863
772,171,9.964589467263421
773,138,8.262314766482548
774,153,8.04681763714148
775,208,1.8297471882233185
776,295,3.7927979332922646
777,316,8.636356083880779
778,433,2.7433871952976485
779,554,1.8409868518469508
780,709,6.674036699129971
781,797,1.866801577596633
782,856,5.5327701973760846
783,878,2.855361604331499
784,864,7.1264129263863225
785,812,9.94132042411839
786,733,8.057953744872169
787,631,4.65794357954562
788,524,3.6201976512501877
789,421,5.950413587409853
790,330,9.874388241175502
791,268,0.7639938177215932
792,235,2.952564530200479
793,235,6.990044018800347
794,268,5.789527210042483
795,329,5.290230073329882
796,412,6.329756608803012
797,506,2.055214727181507
798,598,4.421081429937585
799,681,5.691727195037295
800,748,4.68368362399354
801,788,3.779268893050778
802,801,9.37867510716745
803,0,4.77878918379769
804,0,5.371159332834958
805,0,3.397090011885191
806,0,3.709252483747596
807,0,8.039582696873126
808,0,4.664376845121074
809,0,6.28147137566637
810,0,8.198541432059871
811,0,7.241537311595964
812,0,3.7322404563108758
813,0,5.795255241428412
814,0,8.5663796244729
815,0,3.5723210330774657
816,0,5.435645631959862
817,0,3.7846728447731914
818,0,0.7588135854296829
819,0,9.501956109014763
820,0,0.06072268649312873
821,0,2.1188506714604327
822,0,1.2631131331364776
823,0,9.329136576135355
824,0,8.824682456607531
825,0,6.15660854909785
826,0,6.405864802941668
827,0,6.359247698808497
828,0,9.352128423571877
829,0,5.169218526956996
830,0,3.3386340657081015
831,0,7.806496727065397
832,0,0.7340354501758073
833,0,2.4845835147101702
834,0,6.68537679341596
835,0,3.477265600730528
836,0,5.877423753697951
837,0,6.750566231243484
838,0,9.509286628287503
839,0,5.003950445557237
840,0,3.884600475936082
841,0,1.1034071414319002
842,0,0.7009988219846708
843,0,4.660311315684509
844,0,3.644964974088729
845,0,1.3951349710493943
846,0,2.3901441869520257
847,0,2.1308769660346294
848,0,6.633644860387609
849,0,1.1780804463762395
850,0,6.721938978559445
851,0,8.54260493325944
852,0,3.533423155616464
853,0,7.256537941289489
854,0,1.9061956717057504
855,0,8.535699041309071
856,0,8.48691964078927
857,0,6.47063571213226
858,0,5.742450877579774
859,0,6.181536505956067
860,0,8.078211266323741
861,0,7.8963644562413755
862,0,2.109340657898753
863,0,6.259162872559616
864,0,6.204323820259674
865,0,0.2642920248885283
866,0,6.070202605139514
867,0,8.686154205286414
868,0,4.931162870575914
869,0,8.59113035519486
870,0,1.5338307739561219
871,0,5.844204915740894
872,0,4.167673403454952
873,0,2.599990058859274
874,0,1.5409780261126715
875,0,0.7097607471031231
876,0,1.6412652999429422
877,0,4.660829675820275
878,0,7.7110369140091795
879,0,0.2967270728325322
880,0,5.2196434483762495
881,0,4.275008363022515
882,0,6.5317467593153555
883,0,5.124681338051918
884,0,5.100199759905406
885,0,0.3257012831309125
886,0,0.29523319231409495
887,0,5.874324560748918
888,0,4.971079745684017
889,0,8.623934043101402
890,0,3.48581788470836
891,0,0.7428402779159415
892,0,1.6543380933782004
893,0,9.408496364594672
894,0,6.48404538398387
895,0,1.3336699782336736
896,0,5.655205972156381
897,0,9.601980196705123
898,0,4.170353486126288
899,0,9.816253652222631
900,0,5.397933850303367
901,0,6.8506799545968855
902,0,4.87079781476806
903,0,7.164919845485129
904,0,6.280415556874985
905,0,3.694465501454789
906,0,7.91005635715003
907,0,8.57093013592789
908,0,9.036587431384051
909,0,0.16142990494153686
910,0,3.5512384475222314
911,0,2.0928483240101503
912,0,1.3314930229706001
913,0,1.832458048240535
914,0,3.6396483417031944
915,0,3.316673222832478
916,0,6.127075651284684
917,0,4.489264166312676
918,0,6.951513736343591
919,0,3.0175346795011704
920,0,5.797269831569238
921,0,9.864404377594484
922,0,5.11546482381398
923,0,7.47192115152167
924,0,8.133590135459732
925,0,3.209426688677841
926,0,7.526941609718721
927,0,9.461323473009262
928,0,9.969475035081858
929,0,6.786026511011345
930,0,1.3882666128683718
931,0,2.2729285998020887
932,0,9.188630518609578
933,0,4.321254191653114
934,0,3.870385767402922
935,0,9.291449637808544
936,0,4.6925687366812046
937,0,7.3424401043012155
938,0,8.121699151750079
939,0,9.608744987759897
940,0,5.893458932673883
941,0,8.169014090758717
942,0,7.459982601116195
943,0,9.548136720974467
944,0,4.339662965200686
945,0,0.11123490371473865
946,0,4.281415940969396
947,0,1.491040333236533
948,0,6.738946322391294
949,0,3.9589738098987914
950,0,7.496589972654279
951,0,9.052353189577802
952,0,7.03522315390752
953,0,8.574786820174245
954,0,1.933693131889067
955,0,5.218648238142441
956,0,2.958103416643474
957,0,8.724222264529544
958,0,1.0067254917668222
959,0,6.081252532254011
960,0,4.10646981124575
961,0,8.703922958783512
962,0,1.9139260382040613
963,0,8.184005318614274
964,0,6.053203919648171
965,0,2.8441393549209026
966,0,3.7306148452899546
967,0,4.260918471772921
968,0,2.7896004449094614
969,0,4.488062079059709
970,0,9.17494877907197
971,0,6.616399518197178
972,0,4.876022633733063
973,0,4.6737356581273275
974,0,5.7249648588446895
975,0,2.9567333246023675
976,0,1.4516675290331515
977,0,5.060244719834104
978,0,9.977227876841317
979,0,9.02136158231379
980,0,2.632078355986618
981,0,5.766363395629326
982,0,7.101867670158006
983,0,9.249199380121965
984,0,3.365519117235889
985,0,3.063763326521851
986,0,6.854945082349435
987,0,5.009552692878776
988,0,0.9147110216277343
989,0,6.20354180042334
990,0,1.5020342908759532
991,0,5.212431241750393
992,0,1.3574522815890688
993,0,6.287847791251879
994,0,5.48809296580175
995,0,3.455578633304597
996,0,7.086599326619885
997,0,2.4567506647189785
998,0,0.818688420025464
999,0,5.886171743011126
1000,0,6.303037568014888
1001,0,4.507878146010027
1002,0,4.0562578566138985
1003,0,6.8257876953557295
1004,0,1.6790448295388138
1005,0,7.582986682412813
1006,0,1.579125824074803
1007,0,1.274407854883297
1008,0,3.723544290434886
1009,0,2.370494917887689
1010,0,6.845588445482225
1011,0,5.038287730037386
1012,0,1.8438410803725325
1013,0,8.172402973284477
1014,0,4.146716092417426
1015,0,2.120416822604294
1016,0,2.6346792239424266
1017,0,0.6782929804381421
1018,0,5.602744655951451
1019,0,4.95782241619491
1020,0,8.4402098207655
1021,0,3.8504776563872634
1022,0,6.444510363387275
1023,0,6.840816035243654
1024,0,9.702349465604012
1025,0,7.092759297231739
1026,0,4.143781847794559
1027,0,7.196209913796574
1028,0,0.4184804512487994
1029,0,0.06112062894880976
1030,0,4.713559688767619
1031,0,3.1034293318380013
1032,0,2.511510213719219
1033,0,9.551413039405999
1034,0,7.717812589187618
1035,0,8.926545183972934
1036,0,3.971342168460086
1037,0,1.2204094141228383
1038,0,8.633491581145712
1039,0,8.81223099156778
1040,0,5.3395100875553725
1041,0,8.711858643817504
1042,0,3.0519546269792275
1043,0,6.447690968209208
1044,0,8.921787810022435
1045,0,0.2507058112204019
1046,0,3.034476859613504
1047,0,9.23141199905156
1048,0,0.11135415708519947
1049,0,9.232532991174855
1050,0,9.947956875712983
1051,0,6.6341992986656395
1052,0,4.715911372424316
1053,0,4.639947003013473
1054,0,0.04854090185177684
1055,0,8.96000215125664
1056,0,3.02171785859233
1057,0,2.6857720919776984
1058,0,6.723122175444239
1059,0,3.003650476331614
1060,0,5.532919677732813
1061,0,2.5607973374668846
1062,0,6.299955162357875
1063,0,4.692415711057594
1064,0,0.4627642908597007
1065,0,9.7511870150932
1066,0,1.1483072448088483
1067,0,9.562758282025252
1068,0,1.6588947356691053
1069,0,1.7926012880769138
1070,0,7.502631878114283
1071,0,7.714284847295612
1072,0,6.108960625984167
1073,0,4.863541301426828
1074,0,2.374456954045645
1075,0,8.80925134662722
1076,0,6.468389597032496
1077,0,1.012204131016372
1078,0,4.7149262055845025
1079,0,2.242088728814422
1080,0,3.25115212669729
1081,0,0.19951037721905873
1082,0,6.182981470658467
1083,0,9.299541065747558
1084,0,7.609808084492473
1085,0,9.237914982428798
1086,0,5.83934871390603
1087,0,4.425706902060558
1088,0,2.9684736794894384
1089,0,9.74561407277945
1090,0,5.985832418054036
1091,0,6.367751077115919
1092,0,7.960631782000789
1093,0,3.7175598362620366
1094,0,7.875556189043871
1095,0,6.868807344607843
1096,0,6.954476629666459
1097,0,8.472923958754034
1098,0,2.8132154182180447
1099,0,8.807222180109681
1100,0,2.894656525050854
1101,0,2.3753745464362663
1102,0,0.008074598772180863
1103,0,7.508698686773716
1104,0,5.504138827862429
1105,0,4.227627668968054
1106,0,5.007571433310176
1107,0,4.290555128196987
1108,0,5.961090873423114
1109,0,9.683995259210675
1110,0,4.997751789685571
1111,0,2.049628181275216
1112,0,1.1215035209342417
1113,0,5.4629309618822885
1114,0,5.362811228947937
1115,0,8.199578316282846
1116,0,5.455720215319271
1117,0,9.375161725392353
1118,0,4.221682658982302
1119,0,1.3362774166867597
1120,0,2.346654470120104
1121,0,0.4861093421583451
1122,0,3.5607938994292088
1123,0,9.876560771643604
1124,0,8.013933202442768
1125,0,8.176948878307295
1126,0,4.42628196055848
1127,0,3.8582524785538297
1128,0,3.3031192752649474
1129,0,2.0263505242084667
1130,0,6.085064395294271
1131,0,1.06876218350626
1132,0,5.9000135565516825
1133,0,6.257333962243983
1134,0,4.698281658292512
1135,0,4.070464001322698
1136,0,1.2550654277518247
1137,0,6.533398550607277
1138,0,6.2975813743811955
1139,0,4.759259818253588
1140,0,6.220887040849754
1141,0,7.36437958694734
1142,0,9.04109331178251
1143,0,3.1050849917271828
1144,0,4.736087104264901
1145,0,1.3238598017597236
1146,0,1.5153163581371887
1147,0,7.4514862612118
1148,0,6.618942252705704
1149,0,6.732752006066787
1150,0,6.676020248811549
1151,0,9.411992981592384
1152,0,5.692648327515144
1153,0,6.3389243686229
1154,0,0.01895809316400987
1155,0,8.542975748597986
1156,0,6.783310730979164
1157,0,6.623680435676249
1158,0,3.2396260967810364
1159,0,3.1884010642575267
1160,0,6.458925782526499
1161,0,6.511234429031769
1162,0,2.0940342100634513
1163,0,0.8155912523618514
1164,0,3.1519024902473247
1165,0,8.84190517498017
1166,0,6.331807453870706
1167,0,4.594120038060156
1168,0,2.4511121643414135
1169,0,7.129076708272766
1170,0,9.133161762471563
1171,0,3.5564983090076407
1172,0,2.944018810985247
1173,0,4.394560311157889
1174,0,9.838795363944062
1175,0,6.7987789461682695
1176,0,5.051433837557271
1177,0,5.925795701008745
1178,0,2.295327392075408
1179,0,4.905553836810855
1180,0,6.69707765872698
1181,0,7.975069409258073
1182,0,9.257596189385948
1183,0,7.030204027810947
1184,0,6.200703092535072
1185,0,7.994110444050042
1186,0,9.46467474250811
1187,0,0.2988353059470028
1188,0,3.231038634464094
1189,0,9.511639654807375
1190,0,0.05394414373338874
1191,0,9.315334690736508
1192,0,6.703621468146839
1193,0,2.622897656427652
1194,0,2.873327290715333
1195,0,7.532970655954159
1196,0,1.4625724226045422
1197,0,3.332316507145907
1198,0,5.613924262741518
1199,0,7.780991931361852
1200,0,4.310240926303662
1201,0,5.705213823457502
1202,0,0.6278645074158296
1203,0,5.915665726349497
1204,0,3.1461177389436856
1205,0,5.12999447370027
1206,532,5.500935758665002
1207,536,7.838766310253813
1208,541,2.7745890779149263
1209,542,2.9111561420249465
1210,540,8.347668462415704
1211,536,0.3475077069180599
1212,533,8.962219023242728
1213,525,9.117358945883442
1214,519,3.2804040608466045
1215,513,1.7424316239814708
1216,507,7.184881458857784
1217,502,1.690303561285329
1218,499,4.838296060757694
1219,498,8.858273859885784
1220,500,8.486752809755032
1221,502,8.204061880267357
1222,507,3.2307295218929566
1223,512,9.000583173923635
1224,516,9.63137776734077
1225,519,6.679809968824165
1226,523,8.249928423363857
1227,523,7.194620073367144
1228,523,1.4445809270378351
1229,522,8.664261405861707
1230,518,1.3752601761681404
1231,513,6.811744350051248
1232,508,0.8813650709236232
1233,504,8.079903675994089
1234,499,1.8371879647057288
1235,497,7.358584840277256
1236,497,0.350940951951626
1237,498,6.883412621349249
1238,499,7.364412566166257
1239,500,0.837618232492634
1241,501,0.7253830093673996
1242,501,0.2070669044387996
1240,501,3.4761177797054987
1243,499,2.137173569844004
1244,498,4.202330524264795
1245,497,1.0049620484729571
1246,496,6.740252816283072
1247,494,4.933701509056481
1248,493,7.121563426024096
1249,489,8.352112908949982
1250,488,0.4950671605867152
1251,487,1.773725692550392
1252,487,5.122477574742177
1253,487,3.3531129155790285
1254,486,7.141393870804443
1255,485,3.093937245198486
1256,483,8.70808142718596
1257,480,1.5555616749755519
1258,476,1.0795091214294272
1259,475,3.4551148303445944
1260,474,3.5340417626372833
1261,474,6.248801490071885
1262,474,5.554793233515161
1263,475,3.952766009516715
1264,478,1.41066290030057
1265,481,9.138950895741454
1266,484,9.934785606985086
1267,486,8.756136854820454
1268,487,2.884016445169957
1269,486,4.576128557579158
1270,484,1.0510196074987177
1271,480,9.311817295969224
1272,475,3.1337960285557975
1273,470,6.389013667778533
1274,466,6.252793463146995
1275,461,6.686987470358343
1276,458,1.117742171638867
1277,456,0.5130085096014492
1278,454,0.5934168331121525
1279,453,0.9859420134751273
1280,454,5.657185557077595
1281,454,4.807204879144942
1282,456,5.8931213483410305
1283,457,9.486700441069292
1284,458,0.5171256197371688
1285,458,6.4782957463709785
1286,458,2.7077030283595516
1287,457,2.2471724127258974
1288,456,3.3461763407032907
1289,451,6.568304021069366
1290,447,0.27718183860079293
1291,442,9.046582321925133
1292,437,1.0436081617118664
1293,430,5.590047176126309
1294,423,8.19229753725817
1295,414,4.580683912503456
1296,408,6.04840188368021
1297,402,8.31923750894402
1298,396,1.9547003327954693
1299,389,4.196564618547347
1300,384,6.8078076426764245
1301,378,8.29005487759619
1302,373,9.471361078498134
1303,365,9.188362124677788
1304,355,2.920090349185549
1305,344,0.7321866754482675
1306,336,6.337829801502297
1307,328,2.6595723097205637
1308,321,5.533444190183856
1309,318,4.022742133987165
1310,316,5.1057248278833995
1311,315,3.2839449512228858
1312,316,6.502723027317363
1313,318,6.26111545660409
1314,320,5.7453210146272475
1315,320,0.5080047173585789
1316,320,4.206675242846365
1317,319,5.5289947019534935
1318,314,3.007965885253605
1319,306,7.771095067638985
1320,296,6.125904429415579
1321,282,8.239391487142882
1322,268,3.3695627399348016
1323,253,0.41671938270443354
1324,235,7.204782835190895
1325,218,9.612516485186624
1326,204,2.3841994415287115
1327,189,3.4314484743972296
1328,177,2.0557789432078333
1329,169,5.785325725484245
1330,161,8.09392861815439
1331,160,2.706527851537903
1332,161,2.82774300369953
1333,162,2.5394300192428165
1334,166,2.0495787127873477
1335,168,7.509503016554733
1336,166,0.33652780976502816
1337,164,1.2673698776507836
1338,161,3.818443162239955
1339,156,7.7227324434132445
1340,147,1.67298264174651
1341,134,2.878537954948319
1342,117,1.4884487050271011
1343,102,9.742180811228366
1344,86,0.10146139058963444
1345,70,4.0885166170791525
1346,61,5.633509131250323
1347,58,2.2276136354023435
1348,62,3.432744735939728
1349,72,3.8132668261938107
1350,89,8.465239921563715
1351,110,6.29014145663215
1352,136,4.367447004122282
1353,169,2.2129427941269264
1354,199,1.7003553963039408
1355,230,6.1406940877055805
1356,261,1.1434706111566428
1357,288,9.446210198303827
1358,306,1.4498731938307907
1359,316,8.202770972612331
1360,316,9.768923590703036
1361,308,9.278908699677991
1362,296,2.5766042918596654
1363,272,1.3076621900468455
1364,252,5.549198307578829
1365,234,4.874404462724369
1366,221,5.865432493739588
1367,216,8.41180949341835
1368,217,3.228471371515702
1369,229,1.29341083079481
1370,247,2.8824355939297264
1371,272,6.178098875076802
1372,300,6.269019207071738
1373,321,4.08292930023099
1374,339,4.492658059938841
1375,348,0.4715336467191489
1376,348,1.3535050941436855
1377,341,4.886781366922106
1378,328,7.137328279409873
1379,308,9.350569420252182
1380,283,3.4456884947817423
1381,256,0.03234591207604609
1382,230,4.4319870023722725
1383,209,5.1158165341206585
1384,192,7.980848847897175
1385,185,3.0781233331916935
1386,182,4.950180036153058
1387,183,5.47862021348938
1388,186,1.622423955434329
1389,188,6.932797528325098
1390,189,5.908243729253955
1391,190,8.644276836162062
1392,195,7.522866179326384
1393,199,7.263701726580041
1394,208,1.0916642964882328
1395,217,4.563455389915072
1396,220,8.41564979552697
1397,221,5.780912862944188
1398,219,4.53029181554691
1399,214,3.4950193459547574
1400,209,2.3392093991315055
1401,201,4.805436253628992
1402,197,3.192367634609805
1403,196,8.135299659297932
1404,196,2.82175277254485
1405,201,8.903356173879667
1406,0,9.526209049200247
1407,345,3.156261746755069
1408,328,9.26348377742659
1409,314,4.342565724046543
1410,298,7.552664593517811
1411,283,1.8970341928505885
1412,271,6.727862795569585
1413,260,4.487113870949182
1414,254,8.757067019091128
1415,252,9.117585996166614
1416,254,4.544515000047291
1417,258,6.889496060914753
1418,267,6.171124400327146
1419,274,5.805948642189335
1420,282,8.921301277449526
1421,289,8.274249597768183
1422,290,9.672136009538189
1423,290,9.636066942033457
1424,288,0.13570309756648413
1425,281,3.8674754967755387
1426,273,0.729429064466125
1427,262,3.569444617261246
1428,252,3.021898290910505
1429,242,0.5497146778805995
1430,234,4.191861338934315
1431,229,3.579367692524944
1432,228,7.7955579361623695
1433,229,9.611238735909737
1434,234,9.495891046328515
1435,241,8.048313609853924
1436,248,6.7110354772790615
1437,255,8.452763248354318
1438,260,0.6305770741485217
1439,264,9.42279007973169
1440,266,3.807634713093151
1441,267,4.514473545473303
1442,267,0.8854484756252834
1443,266,5.282748798014905
1444,264,0.8829957575176306
1445,259,6.1213899267502825
1446,256,3.3632694008367703
1447,252,0.9815607385102432
1448,247,2.9378831575165187
1449,243,8.780415890833794
1450,238,1.1934527265816364
1451,237,3.0984791419258984
1452,236,4.266456649199208
1453,238,5.000454943665136
1454,244,3.9868921561415904
1455,249,0.4116450837175445
1456,257,0.9228056437537502
1457,264,6.59197772779086
1458,269,0.20714369637597985
1459,272,5.691670459784648
1460,272,6.66213064668889
1461,267,4.005843837306957
1462,261,3.6852128167684817
1463,253,5.921239477150431
1464,246,1.2294421658435128
1465,240,0.2791459103360405
1466,240,1.5456834426352994
1467,246,8.419558961156273
1468,261,7.2160032793378
1469,282,1.0571997804963562
1470,312,7.614057516940946
1471,346,2.335778335994343
1472,384,1.05420386834852
1473,422,9.964016139231894
1474,473,5.816762973558387
1475,510,0.8018332695474473
1476,535,7.194705271415412
1477,558,5.260839657948582
1478,576,4.056922613402061
1479,594,8.043681590886543
1480,610,5.282269925989425
1481,627,4.7206952518053775
1482,634,5.488030256788874
1483,627,3.245054072274749
1484,597,3.3871895533722163
1485,542,9.277647622611715
1486,459,5.78087110440586
1487,349,1.656190548569909
1488,226,8.361814541643104
1489,96,6.57005349334219
1490,5,6.126674278230446
1491,5,9.6849343322072
1492,5,2.062905281630616
1493,5,6.9422762961923645
1494,5,6.589741919985426
1495,5,7.936661029958834
1496,5,5.954011659837302
1497,5,4.156524209131307
1498,26,0.645178419076966
1499,57,0.8936469817973669
1500,100,2.590536196766111
1501,150,4.275713235924059
1502,198,6.373578962192312
1503,244,4.356226482634835
1504,281,8.10702802219183
1505,306,1.7823678892172556
1506,318,4.154511133413412
1507,318,5.22026271719912
1508,306,9.022749704373279
1509,283,4.676725961647332
1510,254,7.841985642506741
1511,223,4.362585324973103
1512,190,3.3699404502648167
1513,163,2.181449002598208
1514,144,1.354061678078986
1515,133,3.920159866875166
1516,133,4.733501970177619
1517,142,4.326929392749069
1518,161,8.957618413135332
1519,185,6.365884735194003
1520,214,5.096254077820941
1521,244,5.760727766758638
1522,273,2.8829495271740035
1523,296,4.206554521884838
1524,313,1.0116520318893052
1525,320,5.089707300616897
1526,319,4.355243392362349
1527,309,7.756083215268806
1528,291,1.0754831995447534
1529,270,2.373282768674616
1530,246,7.303709526027418
1531,221,4.937163555813287
1532,200,7.662017348776018
1533,186,3.4736679618918576
1534,176,1.8310781668812703
1535,176,6.651755404999027
1536,182,6.825349737460831
1537,198,1.1475258765967755
1538,220,2.3938924752693436
1539,247,1.6719258339028809
1540,277,8.886504121967615
1541,305,9.852736245542633
1542,328,5.125799907765236
1543,345,4.4941902722265255
1544,355,3.21644024171138
1545,355,0.5219282769929889
1546,348,5.823328244008296
1547,334,7.5036017240307356
1548,315,8.552417233393934
1549,291,1.9430412880935477
1550,268,2.9439993205832327
1551,247,9.483271279124024
1552,229,5.006958514961526
1553,218,9.52501118763729
1554,218,1.2115114041350528
1555,217,4.661702641793006
1556,224,2.1188406572594953
1557,238,8.998850170575741
1558,257,1.0842249338962806
1559,280,7.977515690258943
1560,303,5.439495280021198
1561,325,4.7887805008002164
1562,340,8.029375357340191
1563,351,4.8275706756837256
1564,356,8.966815860841301
1565,355,0.8710712582605917
1566,349,3.020144396303064
1567,337,6.912296916856784
1568,320,1.0634707222434936
1569,302,1.6733950428071132
1570,283,9.143367838090448
1571,268,0.587925686456674
1572,258,0.3420578588925216
1573,256,5.157896893915295
1574,261,5.357477692559525
1575,273,5.333896305531929
1576,291,5.083701031079992
1577,313,2.1332540931468458
1578,336,9.252407962416925
1579,357,3.0210227849253335
1580,377,5.847811942193113
1581,390,4.454955658461035
1582,398,0.03557432134749572
1583,400,2.7349975188361597
1584,394,2.0656591004186087
1585,382,0.6724576830067397
1586,366,0.639186154775091
1587,348,9.198248284271797
1588,328,5.822891510138161
1589,310,6.582183646560629
1590,308,7.591396569168751
1591,296,6.549046996258778
1592,291,5.970965610655361
1593,292,1.7001570248019826
1594,301,3.728259709544919
1595,315,4.351744780142443
1596,330,7.2836131341301
1597,351,0.34506543436650494
1598,372,2.4727434568477857
1599,388,4.114594900989335
1600,403,3.0785280754146593
1601,412,2.1687636137633204
1602,415,9.88040747925461
1603,413,5.022189970550355
1604,406,6.778663182227131
1605,394,0.6625202201436697
1606,381,9.975592205829988
1607,0,6.0572367372002045
1608,519,4.054335373129052
1609,509,7.527810616538124
1610,506,0.21520571314231685
1611,504,0.24133415474154596
1612,505,8.11872935142919
1613,507,6.002992765682964
1614,512,1.6500240390884957
1615,518,9.935940866359445
1616,524,4.194904263174881
1617,530,6.815842666029757
1618,534,4.257126645608549
1619,537,6.608166003950988
1620,541,9.379902137161846
1621,541,2.3557107395965304
1622,540,4.38867775824348
1623,536,6.181767966321701
1624,533,2.7285881888214636
1625,525,7.849351258103711
1626,518,2.5097141278910073
1627,509,1.8314738859192303
1628,499,3.0092550992473788
1629,490,2.549616259908636
1630,483,5.513909465729312
1631,475,2.9034322788600053
1632,470,5.657705476663681
1633,466,7.734350112623572
1634,465,3.3873653580458685
1635,465,1.9267244734888878
1636,465,2.6088752093391276
1637,466,0.5060070726800459
1638,466,4.6724632085715605
1639,463,7.999661823923125
1640,459,9.77795035126249
1641,454,9.077145898585508
1642,447,4.807893527217204
1643,438,6.625347411342135
1644,429,3.70760148574226
1645,422,8.73637456838058
1646,413,0.7974738867509457
1647,409,5.728859125595431
1648,405,2.56724688912096
1649,402,9.095288793443558
1650,401,4.908424414640738
1651,401,5.5432261181959515
1652,400,0.9318827445639721
1653,398,8.160490146181193
1654,396,1.8209170255855955
1655,390,4.321783263410119
1656,384,0.7120934967739112
1657,377,7.932301422277179
1658,369,5.103342959461077
1659,362,4.994474902915391
1660,354,2.7029534815826417
1661,348,1.8308926570026296
1662,341,2.0212499439844622
1663,337,7.901971150037321
1664,331,9.800541328134916
1665,326,5.675981899933453
1666,324,9.319638634330293
1667,322,8.381341292205837
1668,322,0.835654947409965
1669,321,0.29926629857736753
1670,324,1.0863221111244048
1671,325,9.319357811278783
1672,326,0.0907241881747134
1673,324,8.280196484277557
1674,321,5.561881511416244
1675,319,8.346747794245262
1676,316,2.9219592409583828
1677,312,8.622877913854698
1678,308,2.5792107938633535
1679,307,1.176173093947268
1680,305,4.689483810618135
1681,303,4.552522984348746
1682,302,6.191009967497725
1683,302,5.497166394711894
1684,302,0.8086300196763307
1685,302,8.485678737974371
1686,302,9.776017925700277
1687,301,9.260735280924234
1688,300,3.6502722378165897
1689,297,0.21615828346613242
1690,296,3.9265420869584466
1691,296,2.3331086091288866
1692,296,2.4087505163229816
1693,296,9.993344516403546
1694,296,7.418907282725568
1695,296,2.6133716146832042
1696,293,7.107321373051148
1697,292,2.5568243413073577
1698,289,7.623347303284174
1699,283,0.3981525098274852
1700,278,1.9976222246431519
1701,272,4.502315867297635
1702,265,0.3994778281021527
1703,257,1.8385473937316066
1704,253,9.884661250527035
1705,249,1.903833014104912
1706,249,5.736152377957929
1707,254,9.262259376590901
1708,258,5.2716052216160865
1709,266,8.727967387557655
1710,273,3.7530150709704957
1711,281,6.421917803139118
1712,290,5.899151952210171
1713,293,8.956683679291235
1714,296,5.773198462650968
1715,295,6.160291336519837
1716,291,8.89557949160411
1717,285,7.402246908484833
1718,278,1.8465154687909502
1719,270,2.6613471941369826
1720,264,9.615711706238116
1721,255,9.907572640422387
1722,249,9.616835106774433
1723,246,1.6229261556623564
1724,246,1.0875424948585444
1725,249,2.109016215671098
1726,256,4.6134952837360395
1727,264,7.460288988026537
1728,273,2.3479885712785387
1729,286,8.849297360470562
1730,295,4.668963742877588
1731,302,8.913904955809675
1732,308,4.024276680749617
1733,310,9.480002455078449
1734,309,2.992863474266183
1735,307,3.6605547536546768
1736,302,5.510617029970161
1737,296,3.3732194033926177
1738,290,0.30958039985152785
1739,283,6.84976219630411
1740,281,4.527809449343998
1741,281,1.3944804622106188
1742,286,1.966970423258847
1743,293,7.668179076395376
1744,305,8.88675938165182
1745,316,7.140244920814601
1746,328,8.38368596431696
1747,338,8.857774150517573
1748,345,5.172326193212302
1749,350,2.658609313153968
1750,354,8.406475891004217
1751,353,8.267139497185614
1752,349,1.7285313123864299
1753,345,3.8259966581596005
1754,340,6.199458628088054
1755,338,9.962073565725767
1756,337,4.770779738070092
1757,339,1.4800484514374523
1758,343,8.609887974662456
1759,348,2.3420450207556476
1760,354,3.365918033369022
1761,362,3.691227676478126
1762,369,7.916903211590148
1763,379,4.800429261353996
1764,390,9.520165044798636
1765,401,3.5135350405701904
1766,410,4.409853045966345
1767,415,4.5189968995966145
1768,421,6.045481681511655
1769,418,8.267468487788632
1770,414,0.8384840007277794
1771,406,2.5282126963837936
1772,399,1.5648060932430297
1773,389,1.5911462905285934
1774,379,9.325281298052484
1775,372,9.17119166249252
1776,365,7.750014970443289
1777,361,4.410129023163094
1778,362,6.112598380925234
1779,366,7.630233987152398
1780,374,3.1244850942045965
1781,382,0.8884031795488334
1782,391,2.40391301356748
1783,400,7.059756068314393
1784,408,3.329028915791452
1785,414,5.866047701129327
1786,422,2.7676075966712643
1787,427,5.609136072054155
1788,427,4.615701136223313
1789,425,1.883533939379487
1790,417,8.38684268606306
1791,412,8.596186910515776
1792,403,7.601987350561048
1793,396,0.49518396305744616
1794,388,9.538220437763687
1795,385,0.10601398633604875
1796,384,0.9717988152231571
1797,385,3.0374781395293593
1798,391,4.028780693215848
1799,400,9.136403515097848
1800,412,1.7537875572914152
1801,427,7.973660273155925
1802,440,6.793791415076072
1803,452,8.514624499705775
1804,461,4.874031584858312
1805,466,2.791358094148544
1806,465,4.546643867360736
1807,459,9.488025614795339
1808,0,8.405779980530976
1809,290,0.808141461539662
1810,283,7.355696558043546
1811,282,9.693007845675822
1812,282,5.4774985105022544
1813,288,8.870547521136288
1814,294,4.62870848048305
1815,306,1.831952014710705
1816,318,2.8585124840712073
1817,330,2.803445011613155
1818,344,1.6447378925630063
1819,356,0.006627356433752674
1820,365,9.01643013995653
1821,369,1.7744193020527321
1822,372,8.864216996920186
1823,368,9.89236140039213
1824,364,4.479215654881672
1825,356,3.7914919043354223
1826,348,6.801488090916741
1827,338,8.463831058418744
1828,329,2.894372030461785
1829,322,6.180033742006046
1830,319,9.893926574828384
1831,318,1.7175022165302312
1832,321,2.897524370679936
1833,330,7.2609637315991105
1834,341,4.178922889818781
1835,355,4.1441127334335
1836,370,2.1723237235105053
1837,385,5.300032916206048
1838,397,6.66239750913816
1839,405,0.8072521981834258
1840,408,9.955092971162415
1841,406,8.982327056605463
1842,401,6.105801497575401
1843,392,7.8493674905222495
1844,381,8.764935382035716
1845,369,5.774103082972106
1846,363,3.18641678492793
1847,357,4.697786243643907
1848,358,8.86462306252357
1849,363,3.041990806594308
1850,373,8.808162577001266
1851,385,1.3416547280607638
1852,398,6.676358477266772
1853,413,2.905358983303914
1854,428,8.47668078513546
1855,440,4.662340750130463
1856,447,2.0818206876973644
1857,449,0.3234641234257962
1858,447,4.609964243417375
1859,441,2.543289956512169
1860,433,4.668945374980207
1861,423,3.3982412535169293
1862,412,4.4174996783526606
1863,405,0.7172634718253246
1864,401,7.525308895560709
1865,401,8.275827174755532
1866,403,5.164370049252929
1867,408,7.048996554752252
1868,414,4.429951017541667
1869,421,4.218842578640398
1870,427,5.0143332649413885
1871,432,5.78249510532562
1872,436,7.063947471388339
1873,437,1.884561855710829
1874,437,0.7290918671523761
1875,433,3.3618670167336018
1876,427,1.534688938189055
1877,416,4.47122575335815
1878,411,7.513106565071681
1879,403,7.146148704088944
1880,399,4.780105412832558
1881,397,5.067433477787429
1882,397,9.724508538311007
1883,400,8.85072303876322
1884,405,9.093235669132856
1885,413,5.537433063717485
1886,423,6.822784895240222
1887,434,2.121825317051045
1888,442,0.7407087555900804
1889,450,7.41738986815778
1890,456,9.121318192155387
1891,458,1.5830892179865885
1892,458,8.393063656317196
1893,454,5.336825208600198
1894,448,8.2473546889799
1895,440,8.798030291297849
1896,430,3.179855809949117
1897,423,1.5208155973923443
1898,415,2.199356927392182
1899,412,5.247262236500763
1900,410,4.765273071319529
1901,414,6.471004905212947
1902,426,1.362043612388586
1903,437,7.101698158000616
1904,448,2.3097082050541484
1905,458,5.557490590299654
1906,460,9.027591135783794
1907,468,0.40926025781565567
1908,473,3.361467995798195
1909,476,5.781907776617318
1910,478,9.481972682780766
1911,476,1.8413678258892219
1912,473,6.255337585390405
1913,468,7.395351167415898
1914,461,4.664624231423662
1915,458,8.10111525168663
1916,456,7.799919245967151
1917,456,1.782484228883796
1918,456,3.368137759191878
1919,460,6.421825736742002
1920,468,9.610340272849056
1921,478,4.84893011640793
1922,489,0.3091175006956104
1923,505,3.0171849902665104
1924,514,6.171334791741403
1925,522,2.317315244939686
1926,525,7.840718543557868
1927,525,1.8056116896894592
1928,523,2.018300095423733
1929,516,5.640423958966194
1930,510,2.406214020870172
1931,506,0.6607457859784671
1932,501,9.446847274190535
1933,499,1.9508586116317694
1934,502,2.056297010344388
1935,508,8.652617748972016
1936,518,8.31046013909063
1937,529,6.827989406688754
1938,541,0.5712431153194175
1939,553,7.935313486683906
1940,561,5.199239554980459
1941,571,7.42833130103538
1942,581,1.2796272148583565
1943,591,1.295134722311233
1944,600,6.780367700670304
1945,608,9.146558523984723
1946,615,8.12658261390079
1947,619,2.8577297321460637
1948,624,4.226057478474177
1949,624,0.3251757348432549
1950,618,6.577578541438389
1951,610,6.420353671673949
1952,602,1.106826143423767
1953,592,7.950560392369736
1954,583,1.5144430896929584
1955,577,7.170170968236043
1956,572,6.2067509427967416
1957,573,3.502551842261201
1958,577,2.4474692061104064
1959,582,7.718225282659706
1960,589,7.467120010868169
1961,596,9.712747941301226
1962,601,5.091809955565621
1963,604,4.0191627858275965
1964,603,1.8913302794888653
1965,598,5.271526353820624
1966,592,5.71870701849954
1967,582,9.887064590851672
1968,570,4.0918350580196305
1969,560,3.410159063478677
1970,552,4.30846252375879
1971,543,0.7662703590706532
1972,537,5.895453594756345
1973,535,7.675617044133929
1974,537,1.2817781523874872
1975,542,2.671837363322671
1976,552,8.576301034699053
1977,561,3.693399137823865
1978,573,3.223821928391697
1979,584,4.501319523868883
1980,592,5.874489209953067
1981,596,6.346791121813138
1982,598,5.768001860422951
1983,597,3.852440506675212
1984,594,2.570744212022391
1985,585,5.425197779548263
1986,576,7.309878394286445
1987,562,1.8358112836656493
1988,554,0.6158025288979041
1989,545,7.172307477465745
1990,537,9.613638288655757
1991,535,0.12626798234562253
1992,535,0.9449183059147481
1993,540,4.98987125564867
1994,546,0.3987746579576923
1995,555,0.5826955818710733
1996,566,0.3720033790588917
1997,574,7.802933159663954
1998,582,1.1520312131539723
1999,589,4.0508493644203725
2000,591,2.4812975772332746
2001,592,3.4292221814240498
2002,590,5.384508229825782
2003,586,2.7401084836280454
2004,580,3.584985231074298
2005,572,5.205075260544858
2006,566,6.993188178159187
2007,560,8.43772283857298
2008,557,4.301911616472347
2009,0,5.745837861754848
2010,861,6.416148363901916
2011,870,3.000394681444869
2012,874,0.5554806008818391
2013,878,3.748757974262451
2014,884,1.5885907104062325
2015,890,2.701764341751629
2016,895,3.248579793897066
2017,891,8.526791093364249
2018,876,8.286569552771102
2019,840,1.8022526813871576
2020,785,0.6669794538631013
2021,713,5.95426041338067
2022,626,4.558390368753463
2023,534,7.874497348860993
2024,446,4.826489419959657
2025,366,3.867646237412674
2026,308,8.953788269907898
2027,273,7.162813178347214
2028,261,1.6713207616838899
2029,273,9.945317968066586
2030,309,5.458918064531602
2031,366,1.0248630452134977
2032,440,9.45565866109578
2033,521,0.7377540823396878
2034,601,4.148222854197481
2035,674,1.7552749264786072
2036,734,7.639333630497007
2037,769,6.161332664867329
2038,781,5.086513590597219
2039,766,4.108133868559087
2040,729,1.3584694725296709
2041,673,2.782228052755371
2042,608,4.953487046011511
2043,544,1.2193395512028715
2044,484,7.907665574887361
2045,438,8.801669124701014
2046,408,6.3822907599363194
2047,402,9.360445353974644
2048,416,3.8451347848583617
2049,454,6.8116184283443975
2050,504,5.690976817857232
2051,560,7.823507746666234
2052,619,2.1752815616401655
2053,675,6.296996319803045
2054,722,5.367646366161212
2055,752,8.845321881420965
2056,764,7.180557087041395
2057,758,6.939848531221394
2058,732,1.2532116772408952
2059,690,6.433540829737241
2060,640,5.107454091332948
2061,588,6.81719247702577
2062,534,2.815073003691555
2063,489,5.136595246926296
2064,460,2.896180754976325
2065,445,2.7605373409511746
2066,447,4.274834850231494
2067,469,0.16682289310924636
2068,506,6.431643727930489
2069,553,6.979391660121744
2070,606,7.941424684953457
2071,657,6.931688527464585
2072,705,2.039754754094467
2073,738,4.763066753135259
2074,758,2.34371955578222
2075,761,3.935508908163452
2076,749,2.526229768623489
2077,725,8.439522963480325
2078,685,3.7367794246472497
2079,640,2.7275249476817143
2080,595,9.09543388838932
2081,555,8.60535555185537
2082,523,7.472048456894555
2083,504,3.928892647682738
2084,497,0.45241691303411935
2085,507,0.5883912745175413
2086,530,1.6281070427991629
2087,561,7.003533346426911
2088,600,1.3973423518927564
2089,641,3.8902568216261058
2090,679,0.07366211008617007
2091,712,3.374845031953284
2092,734,2.6818121370171677
2093,745,7.4278839533062335
2094,742,3.147841291887179
2095,730,8.457626356707888
2096,711,9.535716157612908
2097,684,7.41877742790221
2098,656,2.404321974502599
2099,629,8.556445070653442
2100,607,0.2594183391760585
2101,590,2.4156199417658097
2102,582,4.440634599252968
2103,585,6.645895123284243
2104,596,4.236842058495672
2105,615,8.921255032586103
2106,638,4.922172977047761
2107,686,6.8986382101322485
2108,720,1.1070869248232973
2109,744,9.807935170112161
2110,760,7.456795394655709
2111,769,4.568298091244049
2112,769,7.555155753166494
2113,760,1.476539115449098
2114,745,7.770064036817845
2115,722,2.792937328831273
2116,696,6.289727839506694
2117,675,9.873943453385731
2118,656,6.252739419294451
2119,645,5.055545408835669
2120,642,4.10984549809074
2121,645,2.7103622873363697
2122,657,9.88779165528046
2123,675,0.16093699430567154
2124,696,7.746482190872415
2125,721,4.754445235725299
2126,740,6.545461529929842
2127,757,9.263272523044897
2128,766,7.463254880796402
2129,772,0.5601267352555817
2130,769,2.0635658760584574
2131,762,1.393543599000877
2132,748,1.7831972001503238
2133,732,2.831865877161288
2134,714,6.921458043670132
2135,696,6.31183427227122
2136,685,3.9857977194345673
2137,680,0.3797969880727736
2138,681,0.2727811471389763
2139,687,6.472003063760761
2140,700,3.801516005852754
2141,714,6.090283836644803
2142,727,5.1621776754917
2143,740,6.991086812765193
2144,750,4.88922869764838
2145,758,2.44533412760801
2146,762,4.808095957374037
2147,763,3.666539305463734
2148,760,5.611137940694162
2149,754,6.336225794171966
2150,748,8.106028894318097
2151,740,6.914836003918086
2152,732,8.341859183486822
2153,724,6.4639648885744165
2154,716,6.297691845388522
2155,710,9.83970641929416
2156,706,7.608873360229341
2157,703,9.968964783920162
2158,702,9.917362630938838
2159,705,4.807127089462401
2160,708,1.0803671054163377
2161,710,8.528058207429929
2162,714,4.813267862217283
2163,717,5.414072479774957
2164,721,2.360149388160855
2165,725,4.226438825733895
2166,728,9.606058177076967
2167,734,3.8055359977370418
2168,736,6.581279323344134
2169,737,5.022104128736354
2170,737,7.833614202127526
2171,737,9.64911311455197
2172,736,4.761618703697918
2173,734,3.048532907474246
2174,728,8.368494370165191
2175,724,3.874361492313596
2176,718,5.3151955163043425
2177,715,4.918669717267439
2178,715,7.63267304104962
2179,716,8.802527635559995
2180,720,0.1144553759385536
2181,724,4.71576047623572
2182,727,5.970582824954782
2183,727,1.0469197978930156
2184,727,6.86068913767822
2185,725,2.4402636806183953
2186,722,1.364489436176426
2187,716,0.922783664597242
2188,711,9.192653736776922
2189,706,0.8963810383565463
2190,700,0.27706978234727453
2191,696,3.6091319355465346
2192,693,3.0527914563919656
2193,693,5.188960538150599
2194,693,9.237455309092443
2195,692,4.987845528460548
2196,691,4.608787178124367
2197,687,6.393020944182519
2198,682,6.074310903597464
2199,676,4.0008608916424215
2200,672,0.4535710366402501
2201,664,5.5132161119366
2202,657,1.8318064899951025
2203,651,8.406565733940962
2204,644,2.621111547494057
2205,638,7.003685419474821
2206,633,9.446821219828879
2207,629,2.6181912497008297
2208,628,3.37544190102951
2209,628,8.654336672677443
2210,0,1.3564940233103173
2211,604,7.8968062489748
2212,613,7.733296367404357
2213,625,2.317909246899994
2214,638,1.377911408934609
2215,651,4.273403237871294
2216,658,0.6782428896374082
2217,657,9.722719811182774
2218,651,0.33940062410696914
2219,637,5.402602525875584
2220,617,4.128111504606531
2221,592,6.854311584531296
2222,588,2.8160352202188976
2223,559,7.594542675736477
2224,532,7.022346526961211
2225,506,0.25363501074467054
2226,484,0.5229553247222318
2227,469,1.359884933574751
2228,460,7.840793016555752
2229,461,7.579908559028665
2230,469,4.094845514648866
2231,484,7.969240429141077
2232,501,1.575298963643894
2233,519,8.836356431226589
2234,535,4.4658133024735065
2235,550,4.200274925105321
2236,562,5.5201573135337405
2237,568,4.6169800353465495
2238,567,0.7267104554168524
2239,559,1.7283216518591038
2240,547,8.917629402888704
2241,530,1.1129556408346275
2242,504,8.353424286145989
2243,468,4.237936315348936
2244,429,7.715467792603983
2245,389,0.15935025144572457
2246,358,6.975545226646995
2247,337,6.425615637418711
2248,327,3.545295354824489
2249,329,4.759888087401192
2250,345,1.9781041971089142
2251,373,5.804800837715982
2252,406,6.420937787514918
2253,447,7.955006339468589
2254,483,7.2081754694755436
2255,513,3.4798016129856313
2256,533,4.977825428297258
2257,540,4.537169124765718
2258,534,7.729972371221814
2259,517,9.916820880522966
2260,493,3.5559635013764446
2261,462,8.05496145451016
2262,429,4.047363934226194
2263,396,9.682305299021667
2264,368,9.0718322642415
2265,350,8.97058365061287
2266,341,8.80228748919934
2267,344,2.2340276733274367
2268,357,1.5603363495025047
2269,379,9.605113170785218
2270,406,2.0665680195609193
2271,437,7.5218486857958
2272,465,4.16359141001045
2273,487,6.658203603780219
2274,505,9.613994616003156
2275,511,3.465012334510391
2276,508,5.270173737094654
2277,496,7.752558105450431
2278,476,0.8188442346720626
2279,450,4.839664294342649
2280,423,4.803885323523236
2281,394,4.998989696157925
2282,373,5.256169454897394
2283,355,1.485999671229823
2284,346,0.18294172439352385
2285,345,1.3999247618418753
2286,354,3.4864455378685477
2287,369,2.8824844367923497
2288,412,2.5933698700375207
2289,449,2.428154002417202
2290,477,4.329072323634104
2291,499,6.26803986983232
2292,516,3.46541593818412
2293,523,8.244607652585138
2294,524,7.576551783365204
2295,521,3.761902389604004
2296,511,7.560416907946492
2297,495,5.580190639592832
2298,476,4.210115841540965
2299,454,5.721606572120692
2300,435,1.8082843346347444
2301,415,9.311001684674377
2302,402,3.851805490212461
2303,394,7.6265255360852535
2304,394,2.7566107954417096
2305,401,6.409342333122807
2306,413,7.776955541094301
2307,432,4.760649329330125
2308,450,1.6528351073827818
2309,471,6.491596650450562
2310,489,8.635847947679483
2311,505,9.550610255726893
2312,513,6.190280574766003
2313,513,4.046769205572451
2314,508,6.405160846640509
2315,496,6.095211917595549
2316,483,4.054378681968373
2317,466,7.598053483556379
2318,448,5.763919608550781
2319,433,6.316859651032399
2320,421,4.554616541745147
2321,413,4.305720008389113
2322,413,4.6289270190932825
2323,420,3.5365727645797596
2324,432,7.695912015816589
2325,448,1.2516018725106792
2326,468,1.1887955451496035
2327,488,3.4618608978625387
2328,510,8.986264024807088
2329,526,4.299779909207569
2330,537,8.19384020687794
2331,543,8.775938001809639
2332,541,6.295487360345762
2333,532,3.5677028952076206
2334,518,8.592089570778716
2335,499,9.827696658737244
2336,481,8.176402976734732
2337,465,2.563748859825563
2338,450,8.46220169363262
2339,440,4.145862996269121
2340,433,2.6718723350047746
2341,433,8.413789240307691
2342,437,1.1614591568842547
2343,447,0.9816203452355499
2344,459,3.608500179728953
2345,475,2.1204417340262616
2346,493,9.363785412253396
2347,508,8.831254522863883
2348,522,7.508889202004243
2349,532,5.242884923229063
2350,535,6.475058662751265
2351,535,7.509907352319416
2352,528,6.687289246838148
2353,516,3.9750230996969416
2354,500,6.154469640440414
2355,483,9.197181552836085
2356,466,1.546322486438596
2357,452,2.439070877581677
2358,445,7.34561759006247
2359,441,5.604946673854103
2360,446,9.65289326583866
2361,456,0.2601629438978659
2362,475,8.822684364423845
2363,495,2.8500743932650607
2364,514,4.754150885255395
2365,534,7.619177039303198
2366,552,4.829549496561658
2367,562,1.396785506190319
2368,570,2.8866138700418253
2369,571,6.885912170384354
2370,567,3.479603085172893
2371,556,8.357209249622034
2372,542,4.921486308432364
2373,525,3.728126247811787
2374,507,0.8141889718917517
2375,493,6.998923982236791
2376,480,0.1293356935676826
2377,475,3.592338466939917
2378,475,3.9460030092874843
2379,481,2.798320619935184
2380,489,8.708254081610406
2381,501,6.857989089870951
2382,512,3.8013613977511174
2383,519,1.7289136467095245
2384,524,2.543716486773595
2385,524,4.499035023342042
2386,523,5.6597562265550305
2387,518,0.5207370901897956
2388,509,0.408958903555956
2389,500,0.5249321943237417
2390,489,9.725956916592029
2391,478,4.46361485768535
2392,473,1.227478486627731
2393,469,9.579070322534697
2394,469,2.454114949909938
2395,472,0.24018145072240094
2396,480,8.635893938506563
2397,488,2.6285583920404165
2398,502,1.0452503180724748
2399,518,1.983907722191287
2400,535,6.553289367733212
2401,552,8.649047950169969
2402,567,3.952570108347744
2403,581,9.087890763254066
2404,594,6.401863314293921
2405,604,1.1283556728410704
2406,608,8.309884572999922
2407,607,4.794826148542555
2408,603,5.788843902799162
2409,595,0.18000950144323902
2410,584,0.25235127133717894
2411,0,4.298638612489563
2412,477,7.01548797963869
2413,397,8.223469327604644
2414,351,1.4629319516586459
2415,326,3.55328163598857
2416,326,9.348778206943473
2417,348,1.495763752174617
2418,392,8.824144792652845
2419,453,6.439464555415267
2420,521,8.654950376029621
2421,588,6.759000813168312
2422,648,2.7635755676916007
2423,697,0.2841555187273892
2424,729,5.056297483564604
2425,739,9.913085084134078
2426,727,3.0754425472253955
2427,694,0.07558190529951103
2428,648,7.110831706627419
2429,626,0.25546514161207456
2430,626,0.6971962813032606
2431,658,9.218586667811085
2432,730,8.20945415098498
2433,835,3.1543087429085115
2434,973,5.692839712531859
2435,1024,5.177682963851414
2436,1024,0.41351452307752057
2437,1024,9.098800900243692
2438,1024,4.400162188675467
2439,1024,7.916108756004365
2440,1024,4.7604808391396025
2441,1024,3.4638248935078275
2442,1024,8.471616477132288
2443,1024,5.416063120754176
2444,1024,8.031280785231143
2445,1024,9.978314304293715
2446,1024,1.7377795212908054
2447,1024,6.934453707810633
2448,1024,1.4479419258783355
2449,1024,5.467369702567437
2450,1024,4.32507008487616
2451,1024,4.118405040937894
2452,1024,3.6823729871396327
2453,1024,2.3893237579632554
2454,1024,2.145338456719066
2455,1024,1.6859056098082492
2456,1024,4.978236419594904
2457,1024,9.940688210244835
2458,1024,2.5252398926975173
2459,1024,3.396526464148655
2460,1024,8.882574984796499
2461,1024,9.527066081998345
2462,1024,9.982101838304
2463,1024,6.11114092229119
2464,1024,6.794842248961482
2465,1024,4.872094752400839
2466,1024,5.230679906322782
2467,1024,4.226322869941979
2468,1024,4.500149017588928
2469,1024,7.765236915143006
2470,1024,6.818980106307356
2471,1024,1.04636841722491
2472,1024,8.60959459209256
2473,1024,0.08329006172224096
2474,1024,3.516270538136399
2475,1024,7.616523033328497
2476,1024,8.688131899495557
2477,1024,0.13854160488022904
2478,1024,1.9565128533421894
2479,1024,8.495617997272756
2480,1024,1.388286095477873
2481,1024,2.3759886908668704
2482,1024,1.7988529118517138
2483,1024,8.436032259666675
2484,1024,0.6765447960633919
2485,1024,9.523588667689564
2486,1024,7.597063932924508
2487,1024,1.8299593003961667
2488,1024,2.2495458517031985
2489,1024,9.59360228311027
2490,1024,4.3954250055596695
2491,1024,5.59057955636179
2492,1024,5.713950907179022
2493,1024,8.075781855257125
2494,1024,2.602245949196418
2495,1024,1.9966313207667152
2496,1024,7.595115820584979
2497,1024,4.74068155439501
2498,1024,7.412505182166704
2499,1024,3.319986538911095
2500,1024,5.850883112132788
2501,1024,7.910612876132421
2502,1024,2.257000685457604
2503,1024,3.4917684372040103
2504,1024,6.213765143009633
2505,1024,9.193047495333381
2506,1024,0.19402198818577743
2507,1024,9.071033036300333
2508,1024,8.883880449820271
2509,1024,9.471728769774789
2510,1024,0.8428549977402122
2511,1024,8.422744499792458
2512,1024,4.875716859786374
2513,1024,5.114234879779427
2514,1024,9.12057410578642
2515,1024,7.230037239038307
2516,1024,8.362384468669902
2517,1024,9.375110413055987
2518,1024,5.238453895029256
2519,1024,0.3453260604346764
2520,1024,2.0252987606570816
2521,1024,3.443510994123271
2522,1024,0.5151479263392811
2523,1024,4.558241524059152
2524,1024,2.947887419569226
2525,1024,2.3889279502266314
2526,1024,4.911669548063693
2527,1024,2.3671763951401714
2528,1024,7.1658801582628655
2529,1024,0.8702738474836691
2530,1024,4.747636135424072
2531,1024,2.1153394594574415
2532,1024,3.8611223430310204
2533,1024,4.442392761244971
2534,1024,8.334811656948645
2535,1024,3.6521613299590028
2536,1024,3.136423641905266
2537,1024,8.23507294010209
2538,1024,3.3745847128817874
2539,1024,9.796097867456739
2540,1024,4.4892679074941455
2541,1024,7.972442229277004
2542,1024,7.483809000720248
2543,1024,1.7035679149819183
2544,1024,5.204721769341958
2545,1024,1.7440193985549168
2546,1024,9.791610628347573
2547,1024,8.851793057194822
2548,1024,6.059997692128853
2549,1024,2.8481485755820257
2550,1024,9.568600837370472
2551,1024,3.009325196414918
2552,1024,1.3423557375834916
2553,1024,8.28621474771495
2554,1024,6.911063522891947
2555,1024,9.061504021330698
2556,1024,3.956046338777408
2557,1024,9.018275013100585
2558,1024,8.849826311162275
2559,1024,4.627085263564437
2560,1024,2.9496427797221703
2561,1024,3.5543020174922546
2562,938,0.006903490621585906
2563,813,9.201738467689424
2564,662,9.113283171047373
2565,505,6.195443404251863
2566,354,7.237446077957472
2567,230,2.0196414945321295
2568,142,3.3090422966570165
2569,101,2.082667734157768
2570,110,2.0703605790682844
2571,169,8.942160479418808
2572,266,6.678072787436047
2573,290,9.334075008188261
2574,421,8.293464855934094
2575,561,1.3187433564120843
2576,700,4.997181345233113
2577,818,5.31356672832441
2578,902,8.671436505794732
2579,948,7.817983170245386
2580,949,9.724339159141124
2581,906,3.3211390946224006
2582,824,1.5595788233721142
2583,713,5.508538484232968
2584,537,1.2927216850167622
2585,408,6.57426120885197
2586,298,1.2691708335302665
2587,218,3.7224421998614954
2588,175,5.3194570127276535
2589,173,2.9944081409256906
2590,211,7.608740359091151
2591,286,5.96719156314649
2592,387,6.746202664107194
2593,506,2.923780077402196
2594,622,4.274242571582301
2595,730,7.9497694046845835
2596,814,6.289123333554265
2597,868,6.743014781328411
2598,885,3.275424681027619
2599,865,0.046697847804002546
2600,807,2.421289007613361
2601,724,5.339977389561179
2602,619,4.05213931088785
2603,512,6.218108461007694
2604,406,4.596474828320978
2605,320,6.111729698898946
2606,261,9.72460039509209
2607,253,5.388003501140261
2608,231,4.946918560780011
2609,245,1.9254586380002037
2610,291,8.188581011746074
2611,365,0.06168112854163521
2612,0,6.355981167915985
2613,4,3.7386202653498923
2614,5,4.600167911270503
2615,5,4.569690667799153
2616,5,0.9753001938224126
2617,5,4.362554567088674
2618,5,0.16409927707182526
2619,5,7.674256190279354
2620,5,8.450135104792452
2621,5,8.707982016646893
2622,5,4.860106086514133
2623,5,3.1609451138559863
2624,5,4.277162770265215
2625,5,7.431993203078862
2626,5,2.363190573006597
2627,5,9.204879298785158
2628,5,4.141217162140665
2629,5,0.6334073169569088
2630,5,3.9571203266978805
2631,5,1.3692502233565351
2632,5,6.909176067551663
2633,5,4.436275820547113
2634,5,3.928989944307506
2635,5,6.7375287110837245
2636,5,1.2227700261423835
2637,5,8.682377848055552
2638,5,5.730473192998415
2639,5,8.199494616710375
2640,5,7.301532000719813
2641,5,4.733753288973137
2642,5,8.815565269499103
2643,5,2.150648457693567
2644,4,3.104129553914805
2645,5,6.63748838738754
2646,5,8.197211284514594
2647,5,3.118305466602147
2648,5,6.064342284554918
2649,5,2.3334776579510152
2650,5,7.060011719582184
2651,5,1.0557419994163864
2652,5,2.913830155208861
2653,5,6.998053652798999
2654,5,4.389705107864891
2655,5,6.956289342250807
2656,5,7.113627737550987
2657,5,1.9228341673098925
2658,5,1.1463983100094421
2659,5,0.1953007682379293
2660,5,4.954432730805214
2661,5,8.510738182621282
2662,5,7.3306299589046375
2663,5,1.5829185160712433
2664,5,3.3232161693122975
2665,5,1.976393829365246
2666,5,4.900778657737767
2667,5,6.240751520645409
2668,5,5.419470556292241
2669,5,5.99767392945473
2670,5,4.690828822249999
2671,5,5.088838803818437
2672,5,6.988200287856154
2673,5,5.923505607201589
2674,5,1.3925397717619115
2675,5,1.823650126703773
2676,5,1.3955237655487385
2677,5,0.07059460899526027
2678,5,0.7969334259140526
2679,5,1.5093913071102882
2680,5,4.269385782808673
2681,5,1.1961487935169823
2682,5,8.82362910645475
2683,5,7.818960209109802
2684,5,2.8756992534708092
2685,5,0.5059368036664202
2686,5,2.9319740011718975
2687,5,7.001461930370638
2688,5,5.7410986639822
2689,5,1.7599750941344228
2690,5,3.2902800096328466
2691,5,4.236122468808452
2692,5,1.2714029512187563
2693,5,8.587934482572681
2694,5,6.685592310739716
2695,5,4.891659085525628
2696,5,1.4558874971850089
2697,5,8.789633184190302
2698,5,7.744454154828626
2699,5,3.5893076501680876
2700,5,6.009739658216815
2701,5,5.933874053076904
2702,5,3.8412337582256306
2703,5,5.804378246725466
2704,5,2.2816309922726496
2705,4,9.81791416957197
2706,5,7.261381712052879
2707,5,5.7388541863582905
2708,5,5.313373371240835
2709,5,6.486079380351326
2710,5,5.53995566377369
2711,5,8.141314963348947
2712,5,9.690967377661867
2713,5,9.216398911318125
2714,5,2.827529141292877
2715,5,0.7476838711361844
2716,5,0.9815493337914161
2717,5,1.0480917283059021
2718,5,9.146304027260507
2719,5,4.735711262519304
2720,5,3.508569946557767
2721,5,9.573414130108324
2722,5,3.556352815634194
2723,5,2.68520226067839
2724,5,6.988248440056044
2725,5,0.027110534324661373
2726,5,1.8962818517437507
2727,5,5.1760467362231255
2728,5,8.377786141103806
2729,5,6.9008360910889
2730,5,1.234957544595594
2731,5,8.903106808994195
2732,5,9.967488066115237
2733,5,7.010229452129948
2734,5,6.352693955376942
2735,5,7.0632238920141095
2736,5,9.586082562306775
2737,5,0.5889347877626205
2738,5,5.277538883644908
2739,5,7.9457059660122376
2740,5,0.4105595077380264
2741,5,4.83588662999477
2742,5,1.0170965421877698
2743,5,3.397064466023718
2744,5,2.4545257639596363
2745,5,6.230134923807887
2746,5,1.4602059348907614
2747,5,1.9513685065695752
2748,5,9.495200996867904
2749,5,7.379774442155551
2750,5,3.250628843831922
2751,5,0.6513214086462504
2752,5,0.19809159752995686
2753,5,6.6846483178437595
2754,5,9.39243718168014
2755,5,0.5392305116230989
2756,5,0.8895086286546738
2757,5,7.391001760210805
2758,5,3.7168108897271157
2759,5,0.6990849411183109
2760,5,6.396016988422892
2761,5,5.363875902430754
2762,5,6.144228836757972
2763,5,5.630325694665872
2764,5,2.0959892531475433
2765,5,4.720220404499004
2766,5,0.16917381979041357
2767,5,0.3702252636263026
2768,5,2.215743314443621
2769,5,9.074626981968652
2770,5,0.574201188375989
2771,5,7.460295371853771
2772,5,5.161508565851236
2773,5,3.764638130202167
2774,5,1.9577548950426626
2775,5,7.235664033691327
2776,5,7.328640449437502
2777,5,7.277838853030241
2778,5,3.5369674641548987
2779,5,2.3949883765531865
2780,5,0.1621858956559752
2781,5,5.5527790976248514
2782,5,7.604011635588968
2783,5,6.2513469743113825
2784,5,4.917566921840264
2785,5,6.199703530239271
2786,5,1.1039435821130028
2787,5,2.5745329405726736
2788,5,3.5884034934566023
2789,5,4.237294747963915
2790,5,4.818759322977093
2791,5,6.3733824531143
2792,5,2.792068268442225
2793,5,6.991022036721599
2794,5,3.2174785801213224
2795,5,9.5006311850997
2796,5,9.43042792384114
2797,5,0.5183256375483958
2798,5,9.854054452959009
2799,5,9.957112147857908
2800,5,0.7634437884218892
2801,5,2.9974062826315007
2802,5,8.805216245117546
2803,5,9.250514810017478
2804,5,6.064443097095036
2805,5,3.175950230253206
2806,5,8.085901758416174
2807,5,9.131626442383922
2808,5,2.1108449306384625
2809,5,8.280811366601826
2810,5,1.276999438487214
2811,5,3.361980493004597
2812,5,1.866550861913736
2813,0,2.1116820715282003
2814,482,6.825719734092363
2815,478,6.346922194523752
2816,475,9.921048188623354
2817,470,9.504398892063996
2818,465,9.373241520350827
2819,461,4.342673362849901
2820,459,6.981384988778898
2821,458,5.168950975753632
2822,457,6.50192208866291
2823,457,7.767149084085885
2824,457,2.053076420762361
2825,457,8.151071234376985
2826,457,2.4830101230511636
2827,459,0.8350598549197885
2828,463,3.0904619671800004
2829,468,2.8447760021418977
2830,471,4.891937351602557
2831,474,4.44444688123331
2832,475,3.2613889849969713
2833,475,1.3144004489897632
2834,474,0.17772848876370428
2835,471,7.953503051372595
2836,468,5.6774096110858485
2837,464,0.37901082761241156
2838,460,5.6296694696775145
2839,458,8.427867062526591
2840,457,6.605310359862566
2841,456,3.0430581571740145
2842,456,3.0451305631607184
2843,456,2.0397129102840417
2844,457,7.579085509161176
2845,458,3.335729405886201
2846,461,6.174289032003024
2847,468,1.5454684802329477
2848,474,7.864134836955536
2849,480,5.498762587208336
2850,485,2.0883720409014583
2851,488,0.9186454779201125
2852,492,3.6212426343632997
2853,490,6.437183543946499
2854,487,7.422163814754706
2855,482,3.673510871629486
2856,474,1.0440993061950987
2857,464,6.0261951338410285
2858,452,3.434144067971354
2859,441,1.0545430672970801
2860,432,1.4807276846331052
2861,426,9.115397735979606
2862,423,7.061665619066979
2863,423,4.049485000858068
2864,428,3.9929875234878587
2865,433,9.393218690049718
2866,441,4.26754949353497
2867,449,3.1734130366683067
2868,464,6.979648539259342
2869,474,3.9508253648230895
2870,483,0.7399651663028983
2871,488,1.1632065943972036
2872,494,8.099020423322063
2873,495,6.6701084018106975
2874,494,9.920013660584646
2875,488,2.7736807623891657
2876,484,4.781890812311216
2877,476,7.174125363876989
2878,471,5.078685655044719
2879,466,7.567106429999524
2880,461,5.763510083328081
2881,459,0.49033827027223253
2882,457,2.7142522972023952
2883,458,9.003926140455938
2884,463,1.504873658890924
2885,471,8.418780674751677
2886,483,0.23167605011980674
2887,494,0.7321879306439483
2888,505,5.626562271973993
2889,514,3.3247361688875077
2890,521,7.050329974948173
2891,524,9.280555308588118
2892,525,5.072272830612938
2893,522,1.88148779980303
2894,516,9.314653126202419
2895,509,2.3391901223741374
2896,500,1.3454949478750922
2897,493,8.107044501695617
2898,486,6.5180865449495755
2899,481,8.926193182491788
2900,478,1.1441282885121584
2901,480,2.7440437673017626
2902,483,9.187168703726842
2903,486,2.7530108925598595
2904,493,7.768520617768702
2905,498,8.466508798805691
2906,507,8.635866360088391
2907,513,8.739055218508751
2908,518,8.28038551535563
2909,521,4.412969931631848
2910,522,4.838816937362469
2911,521,6.445239409094768
2912,519,7.08398868551523
2913,516,0.4242469159809481
2914,513,5.064420989430641
2915,511,5.630681642197848
2916,508,2.059372836871125
2917,505,2.0088941973583774
2918,502,0.8079386664730226
2919,502,7.126715861707266
2920,505,5.889054779502072
2921,506,5.13947920468357
2922,507,2.7878633982269463
2923,507,6.37855458783643
2924,508,1.8818376409815496
2925,509,3.485240686534843
2926,511,5.1812326056754525
2927,512,3.977039718682094
2928,513,9.560680490335766
2929,514,6.92604079962206
2930,517,8.271743759104428
2931,521,7.05963592141456
2932,525,5.984721175899558
2933,528,5.165797070112026
2934,532,9.15977474052112
2935,533,6.239547664165901
2936,534,0.09881432753304331
2937,535,4.810178159375223
2938,535,7.719329279956679
2939,535,1.6297073244404414
2940,534,1.1143850564687097
2941,534,9.579549729894254
2942,534,1.9021556947371598
2943,534,6.516260371389125
2944,536,0.7561099845432917
2945,541,2.345734225417073
2946,544,9.909258871256906
2947,546,1.1090324715057442
2948,546,1.5104028926650015
2949,546,3.9802829882597646
2950,546,3.7595416765740297
2951,546,7.363303570809981
2952,547,4.39491471385282
2953,548,6.347063102273076
2954,550,3.794573190878885
2955,554,3.565268032784219
2956,558,5.424383509606092
2957,564,1.919531676609656
2958,573,7.300552134880811
2959,586,1.9957253002277375
2960,603,4.693224364128694
2961,618,8.551812851212631
2962,633,5.420010276292242
2963,644,7.12777721850305
2964,651,3.422217867988253
2965,653,6.004134976965576
2966,651,5.64111157448875
2967,644,6.507937532283837
2968,633,6.607679873049046
2969,620,8.373246015555376
2970,606,2.5304403887583837
2971,594,8.5623482507053
2972,581,9.469469085417755
2973,572,4.904492296466887
2974,568,1.3023158102365628
2975,567,3.7897315521789143
2976,567,5.264477462476307
2977,567,8.032139737010224
2978,568,0.596937258125847
2979,569,7.444775683125988
2980,569,3.8412688092007174
2981,568,7.418156122584625
2982,562,7.256544113435009
2983,558,1.6609885480768871
2984,550,1.5073939684880822
2985,540,9.285707332408531
2986,528,5.712483344198467
2987,517,8.560205272798232
2988,506,4.118597658652803
2989,497,2.5551020500058863
2990,489,9.413428124925787
2991,487,1.601173400120044
2992,486,1.7171286975570443
2993,487,3.2901231534569275
2994,488,3.8069058895728247
2995,493,1.1109759343918646
2996,495,4.430247603126598
2997,495,0.7919913221238173
2998,497,3.1838669845738865
2999,497,2.5544762827218204
3000,496,1.8526270964075642
3001,496,9.283303635590732
3002,496,8.913018884601513
3003,496,8.539771824533208
3004,497,2.0660210136268065
3005,497,7.62897512498802
3006,498,1.7516217915128673
3007,499,0.7317948207805935
3008,502,9.089179578652258
3009,505,7.521303277599076
3010,508,0.4040612396305554
3011,509,5.561734757840593
3012,512,0.7939846087967206
3013,512,3.9703512172546085
3014,0,9.821320225498422
3015,499,4.181711626080922
3016,505,9.46370528147526
3017,507,8.934455504359084
3018,509,5.149095753087658
3019,509,6.825731740480863
3020,507,6.832703964443647
3021,502,3.6737994773157934
3022,497,7.052512487524845
3023,493,1.3418874557374338
3024,486,3.197980854009468
3025,481,6.870432926340331
3026,476,7.50509171800285
3027,475,6.796722124518593
3028,476,8.838535023891021
3029,481,4.2918111495272075
3030,487,9.768643926534422
3031,495,9.460316178782742
3032,504,6.780718144344837
3033,511,1.4701932394038764
3034,517,7.515478470889379
3035,522,6.006196122693288
3036,523,3.0003107591209277
3037,522,1.1710772335628272
3038,517,8.765235773023665
3039,508,3.6050744439732263
3040,500,0.05184738653904786
3041,494,1.3919693172596426
3042,486,6.592446017128983
3043,483,4.56954121408881
3044,480,6.301855432921575
3045,481,6.6732579445773155
3046,483,0.4125344801577957
3047,486,7.089779475455698
3048,489,1.7822689670739211
3049,495,0.24919106971582838
3050,498,1.2174668392163968
3051,504,4.628141444138915
3052,507,7.346420089042855
3053,508,5.19776142893384
3054,508,1.516969352177544
3055,508,1.6069371015868472
3056,506,3.997607722996721
3057,505,3.8358750067604475
3058,504,5.17768323843538
3059,506,9.121457409285954
3060,511,0.4056816148760878
3061,522,3.491249952949027
3062,538,3.2734620608643294
3063,559,5.403659944311072
3064,584,7.029693622248148
3065,609,3.423220431483851
3066,637,9.32517533624691
3067,662,0.8928330976058252
3068,684,2.898264761612388
3069,708,3.557961024272225
3070,724,2.8098909127865035
3071,734,3.2226506551599465
3072,745,5.854984464114508
3073,756,9.04207802272822
3074,771,2.9263832813638735
3075,792,2.1475513065904295
3076,811,0.2075427456374035
3077,821,5.600610658478288
3078,817,2.059396200497743
3079,794,9.753827165890199
3080,746,5.492272682323982
3081,669,8.93019624848105
3082,572,2.375115551030631
3083,461,1.1380729333078055
3084,344,6.401188979820263
3085,237,4.839950525709633
3086,151,7.965235802427674
3087,88,5.808021000717347
3088,61,1.9349878225789885
3089,69,5.346703742510095
3090,114,5.859676820267358
3091,190,1.0299968940658277
3092,290,9.057362580239829
3093,403,6.707561417546694
3094,520,0.9709529052613264
3095,625,2.331594866075095
3096,710,0.8788373557938489
3097,775,4.844466828717431
3098,784,4.816044649076458
3099,759,0.3894079416722551
3100,703,3.605950097510602
3101,625,8.328815104912445
3102,536,1.2312788841750666
3103,446,4.433594621706476
3104,361,0.5316524375170317
3105,297,1.6985301273143039
3106,261,2.3994840473836465
3107,252,3.2206466998628303
3108,272,2.4422852024579456
3109,318,8.508728394043402
3110,386,8.282622338147277
3111,468,1.2304974456860363
3112,552,8.747183179459743
3113,629,8.975608524257712
3114,693,2.601079310942802
3115,738,4.339351394572657
3116,758,8.577362252776645
3117,758,1.7233068897486148
3118,746,2.895812679357761
3119,708,2.7714528181046916
3120,649,6.271538344992685
3121,580,7.538300932004081
3122,481,2.149235417367641
3123,414,0.5349969598390825
3124,365,7.345628173703675
3125,336,5.54719000931303
3126,328,4.6761694817536785
3127,344,1.1264716339363168
3128,380,4.431582810669337
3129,435,3.347325586175689
3130,497,4.156313308723771
3131,560,8.042507107395023
3132,618,1.3268024029555292
3133,665,1.8110641943440986
3134,694,8.102940026524465
3135,709,3.286498436091687
3136,700,7.044614468209705
3137,672,1.8168018937356623
3138,630,0.23191526173251376
3139,581,4.643634993370109
3140,529,1.3842026161885257
3141,477,1.3380926465922172
3142,436,0.6816376017740522
3143,404,3.3099119716225966
3144,392,3.027673998348066
3145,396,3.5317054545261906
3146,415,2.832460847741045
3147,453,7.874102422357289
3148,497,9.092542425892516
3149,546,6.680248427817963
3150,593,6.07650142296931
3151,633,1.6351867901014527
3152,665,6.335461215983607
3153,681,5.376703749803495
3154,684,6.357423706590939
3155,672,2.9420082280634774
3156,645,7.761033993419866
3157,609,3.6724660731410053
3158,570,9.866008033222574
3159,531,1.904377426596342
3160,493,4.480391437601745
3161,463,7.156872699366699
3162,446,6.240232410971826
3163,440,9.710411802489645
3164,449,7.25679620605284
3165,471,5.331309778473569
3166,505,3.8027624082444644
3167,543,3.334957046845428
3168,583,9.464236229232075
3169,621,2.173964458928621
3170,653,6.948556248352611
3171,674,5.85524568163172
3172,682,3.4241157196564154
3173,677,6.937293353637917
3174,660,5.512245200462322
3175,633,6.517786506444407
3176,598,1.0724117639579078
3177,562,9.044681015179293
3178,529,9.28937085528991
3179,501,8.542568464572195
3180,484,0.2683701441958708
3181,475,1.3739776576818508
3182,500,8.376796187377275
3183,545,1.7014788036045458
3184,584,2.895434759031996
3185,620,2.786172808883709
3186,652,8.629787944389037
3187,676,7.099536871547823
3188,691,9.808192934240648
3189,693,5.442651240112866
3190,686,0.4011219461789284
3191,669,6.216473720054962
3192,645,0.3354449475335297
3193,616,8.011169855678617
3194,585,2.85387581474569
3195,558,6.185900095197319
3196,536,8.686928791976293
3197,523,8.979829130027444
3198,519,8.482280832940416
3199,524,7.475493567039269
3200,540,3.4830297336785665
3201,560,0.21679669456754924
3202,588,0.8912173400709755
3203,615,6.736300881883482
3204,642,9.683982493789076
3205,665,9.765345614395166
3206,682,0.4379010439705322
3207,694,3.0595859726744346
3208,700,8.286346873644344
3209,694,3.9017164407447513
3210,685,5.466540140095142
3211,669,5.354079459862602
3212,651,0.9634352954165482
3213,632,8.147772854080177
3214,615,2.534075420770956
3215,0,0.8190769177918367
3216,577,5.350085333317174
3217,614,0.06726934445649535
3218,645,6.104499199586543
3219,679,6.587908516383125
3220,726,9.63953347013171
3221,758,1.886392152694485
3222,786,8.947458432548835
3223,813,9.199071220279682
3224,838,1.4793517239385356
3225,865,9.683277873631297
3226,890,5.9272423644130985
3227,917,1.9095269624611655
3228,945,7.628394831401781
3229,964,0.8142887402897436
3230,965,0.3545521130225948
3231,942,2.0050480152591477
3232,889,8.99836046672856
3233,806,7.126631007969564
3234,693,1.5872364888586565
3235,564,3.843501790970596
3236,428,8.231580967485659
3237,297,5.8146728762570525
3238,190,7.0707737812029965
3239,110,5.644626251169031
3240,68,0.7072558607724511
3241,64,1.0855324255301069
3242,70,2.509904250361723
3243,116,3.7318146415454456
3244,199,2.454011594430281
3245,307,4.277312812149812
3246,432,2.7849567909657735
3247,556,6.962615959538711
3248,669,1.332741786817886
3249,762,0.9093386279581872
3250,822,8.683164022237538
3251,847,4.172869491699142
3252,833,4.428866831512243
3253,787,8.186560618362975
3254,713,1.2822741276186855
3255,620,7.133480645087551
3256,524,1.4162036127352362
3257,433,3.347733949471845
3258,354,5.202630706430959
3259,302,9.835726224541926
3260,280,0.4854493706409402
3261,291,1.2105213541352589
3262,330,1.2859334912219889
3263,398,4.72854647369134
3264,484,7.788782141336026
3265,574,4.170838993037435
3266,665,4.739413061014641
3267,747,8.992035340635256
3268,810,2.267572457977316
3269,846,3.967502981830915
3270,855,1.0399893159442808
3271,831,7.815558570927483
3272,780,4.323799294574961
3273,709,7.468830466233484
3274,622,2.935726170620865
3275,534,4.005549636760167
3276,450,6.696249874108546
3277,380,8.715491383262645
3278,337,0.2500348635619609
3279,319,8.572944412238888
3280,330,5.191069068193379
3281,368,3.275643644319306
3282,434,7.014061681407206
3283,512,5.819634742509139
3284,597,0.6864526444129959
3285,681,1.4856667973986815
3286,757,5.95815263276632
3287,810,8.534399741119763
3288,840,4.374135942310069
3289,841,4.910393693531308
3290,816,5.785880714261678
3291,766,7.939832373095907
3292,701,6.826119357204816
3293,622,2.666967072215498
3294,546,8.810254388718935
3295,475,2.5813173122952016
3296,414,0.4781623912998145
3297,375,6.2338493100699655
3298,358,0.9290629829675368
3299,376,6.758623297128478
3300,415,1.355001444419146
3301,474,1.1541027680268834
3302,542,0.8115007541706976
3303,613,7.6621959238255695
3304,680,1.8636977641508023
3305,740,2.4827180249452874
3306,782,3.0224983271073547
3307,801,0.4371005011158857
3308,798,9.580771564869934
3309,776,1.2312661201822062
3310,736,3.93646902418914
3311,680,3.3454909124348275
3312,619,6.884847288667464
3313,559,4.665888038428294
3314,509,5.972733943860867
3315,471,3.4730109175958357
3316,450,7.293731545614945
3317,448,2.41441950027089
3318,463,0.9892387601622765
3319,495,3.937861026843754
3320,541,8.7131030977291
3321,591,7.814099135780235
3322,644,5.62042307527471
3323,691,5.582374078239636
3324,732,6.503227536762301
3325,758,3.2144874094463405
3326,766,1.3257608830645107
3327,758,3.8674486462600055
3328,736,4.512381459641633
3329,699,6.0113192099970325
3330,655,6.750649543080581
3331,608,4.4436910978572985
3332,566,0.41652303063452356
3333,531,3.5528554096588616
3334,506,3.1345784682464606
3335,496,3.652624298354936
3336,502,6.524691184588476
3337,523,3.0387433956487064
3338,555,2.5459643264147824
3339,596,2.383668654985358
3340,642,8.623348031712823
3341,688,2.5063534170788193
3342,733,2.186040483038254
3343,766,2.776266563696308
3344,788,6.811046445364106
3345,797,0.33204183823162925
3346,790,3.7011205795571467
3347,768,0.46767040053051545
3348,735,6.042330041098896
3349,692,6.340102195278645
3350,648,9.180443081524032
3351,608,9.57754818907703
3352,577,6.958250608477147
3353,555,8.30292531989149
3354,547,5.299910162627047
3355,554,7.038978222153432
3356,570,3.8712350303335996
3357,598,3.7490243130346768
3358,633,8.850489698553645
3359,674,4.5084092673115865
3360,716,9.26271854362655
3361,753,4.5287465194577425
3362,784,2.3797769944193514
3363,804,0.6834749806980978
3364,811,7.96011555162046
3365,805,2.0509111053415374
3366,786,8.89930857617042
3367,758,4.790013645795536
3368,722,1.5179821828704565
3369,682,9.574623896615247
3370,645,8.48678712971533
3371,615,2.1687997684449134
3372,595,6.546407087308797
3373,585,6.448999890337241
3374,589,1.3924147243227347
3375,603,1.504082233806956
3376,625,4.933947899470425
3377,653,2.454634188191349
3378,686,4.551246408855296
3379,722,6.952092627409625
3380,753,0.021067587372591845
3381,777,1.2374349630924253
3382,794,0.3209758878839897
3383,801,3.803271608326093
3384,795,9.806187834537019
3385,778,5.722240247591854
3386,756,3.343862578893906
3387,727,0.11645051236598647
3388,694,3.568617162420391
3389,665,9.162896513911974
3390,641,2.3433810948235623
3391,626,9.696618511075783
3392,619,2.280749220285947
3393,624,8.61970924918018
3394,637,3.0957551744559697
3395,654,9.902002134330987
3396,677,0.667300984077166
3397,702,1.9045315527367324
3398,725,4.042457671167097
3399,741,4.3022432626124285
3400,750,5.195860324240251
3401,744,2.9241521748819532
3402,725,3.415866609037761
3403,708,1.512089050887564
3404,686,1.6613964518092739
3405,674,1.0533286202302583
3406,665,3.3664255138333776
3407,662,0.03389393923797002
3408,663,4.332207702531246
3409,665,2.2795538063440723
3410,669,5.8938643446693835
3411,673,9.464754308377216
3412,674,5.497945435660547
3413,673,3.9188398170857397
3414,669,1.018615900506632
3415,665,4.718254835036857
3416,0,9.848156714702414
3417,4,1.6744264123673402
3418,38,7.382747429630701
3419,105,8.614420046308888
3420,204,6.16998671341745
3421,321,9.016518181423317
3422,453,6.655189774436872
3423,583,0.4816654364064732
3424,699,0.6270178688053307
3425,785,3.8453191433152667
3426,833,2.3591748536404222
3427,836,7.2926198162439455
3428,794,4.398977711255155
3429,711,1.8218051109362587
3430,600,4.596803391249393
3431,477,8.56485188146145
3432,353,6.106641528807191
3433,247,4.270606237789323
3434,171,4.976423449745773
3435,133,9.133708457885044
3436,142,7.390296661880161
3437,196,5.786059801394606
3438,294,5.230396598552732
3439,493,3.8988333298224287
3440,657,5.651215866695647
3441,828,4.133947615936126
3442,980,3.339355792909524
3443,1024,1.9210911427033883
3444,1024,0.9904152016707424
3445,1024,7.2406739795536605
3446,1024,4.600373309874779
3447,1024,4.366969630687237
3448,1004,7.876456769544569
3449,942,1.0744103692087914
3450,867,1.5820753324490666
3451,783,9.714120382839479
3452,698,5.978455884073586
3453,618,4.895670548838337
3454,544,4.709342256382714
3455,478,8.780046576276435
3456,427,6.861322197441084
3457,386,8.506393880635857
3458,363,3.569582910358371
3459,356,8.277008911944355
3460,365,1.176429496121587
3461,385,0.8120642285299162
3462,408,3.3535210744150334
3463,430,2.523549802320244
3464,447,5.308626380963457
3465,450,1.65547600536196
3466,445,4.167961809812349
3467,427,7.366789562014009
3468,401,9.845873313758709
3469,369,6.361207823574098
3470,340,0.8461407361811446
3471,314,3.4821640622502903
3472,296,4.746768721556367
3473,288,1.7209840411383848
3474,301,6.471452639119473
3475,337,9.878811190145164
3476,396,9.4181426257291
3477,470,7.932513686500395
3478,545,9.714421940594377
3479,608,5.418122676615451
3480,653,2.9483964736391233
3481,676,7.867182533529435
3482,676,1.0469765626831706
3483,652,3.7664707924831164
3484,608,7.027668698251299
3485,550,6.494868350125382
3486,482,9.474997404670253
3487,413,8.63937918971149
3488,351,1.7198610475134912
3489,307,1.8248771112799167
3490,283,7.466160941747941
3491,290,7.575562375036817
3492,321,3.613624732523759
3493,378,1.4516588685487752
3494,451,0.68534780352971
3495,528,6.249786221240656
3496,601,8.826739115234705
3497,666,2.749536300162898
3498,720,0.5247934673875054
3499,753,9.385116972525637
3500,766,6.794700999102627
3501,759,5.434735820503429
3502,730,7.8758203205916
3503,684,1.2227420413286172
3504,626,4.367948439940468
3505,560,8.111136850084852
3506,490,5.030187520631717
3507,421,7.764648840069677
3508,357,6.901416735173422
3509,313,5.690331346256993
3510,291,0.3496768043723941
3511,294,0.4789919644247287
3512,322,3.218812154781825
3513,376,0.006695231679587632
3514,450,9.855937575973172
3515,532,4.4154400258644655
3516,613,9.536761610697797
3517,710,7.6089945803521015
3518,761,9.508224453444619
3519,792,8.304644698402948
3520,798,9.283534951693312
3521,784,9.937326262242564
3522,748,7.93126564835913
3523,694,3.0775481259851145
3524,636,8.289771461655352
3525,578,3.6194131073488167
3526,525,9.992044527688194
3527,483,1.0533830224597973
3528,476,9.762427941165102
3529,449,3.2601650823539496
3530,437,6.959073658662489
3531,436,5.482309372373566
3532,445,4.812000120615741
3533,460,2.8045424108235695
3534,478,6.1688919413490435
3535,495,7.054638186209685
3536,506,3.591777619552936
3537,508,4.251225608149312
3538,505,7.4925762829756675
3539,496,9.926805706849528
3540,485,7.1904301363266
3541,470,2.3508733237018764
3542,450,1.630551430864975
3543,432,6.042280864165721
3544,412,0.1248868560906069
3545,396,9.910756816019164
3546,387,4.846184861578267
3547,391,2.6442894434338293
3548,412,2.184143105195584
3549,449,8.412622972524627
3550,497,8.471708560077166
3551,550,3.9744703938019676
3552,601,2.156333375838173
3553,643,0.39413731828092713
3554,667,8.357245814234977
3555,675,7.069837353656285
3556,664,4.131661694475193
3557,639,1.1106011333983012
3558,604,1.5527252204793651
3559,558,7.042700720968032
3560,508,5.010856481741561
3561,460,8.576551599025972
3562,421,7.587363244761683
3563,393,9.557672651115457
3564,386,5.083096868787389
3565,397,9.89855473822308
3566,427,3.7956024633125085
3567,507,9.07926017477507
3568,570,4.531301247318118
3569,625,3.7264618418783413
3570,669,6.747221387330087
3571,700,7.032666540873986
3572,710,4.975237138249129
3573,696,6.123265435852925
3574,667,8.09115788314783
3575,614,4.283457092449316
3576,571,1.4053088494189914
3577,536,4.001128860912646
3578,513,3.4582413596915074
3579,506,6.853862486882758
3580,511,7.45775256818521
3581,530,7.283197249880118
3582,561,5.144302282309969
3583,604,0.8721294233885679
3584,651,1.2984843161891968
3585,696,5.833615519862847
3586,739,4.576456254627066
3587,768,7.6652778883765755
3588,785,3.3238934167507295
3589,785,8.645407317646885
3590,769,7.346554046232054
3591,740,8.916406058748795
3592,703,2.740937613339247
3593,663,9.046695558093958
3594,626,2.6826618850129758
3595,598,4.534704494936461
3596,581,9.440775816706095
3597,579,0.1976138386616655
3598,590,7.466116303140655
3599,616,9.96731194215486
3600,654,8.231405702849841
3601,703,0.8439674603051461
3602,754,9.452840345258029
3603,805,3.902134334208618
3604,849,9.982157263739044
3605,884,2.2734649775742755
3606,904,8.057199772369565
3607,906,0.49729463083399317
3608,893,3.0069393571941916
3609,866,0.5615547957360612
3610,829,3.1748152703979504
3611,786,5.225722616908721
3612,746,8.237313061860617
3613,710,7.580008009303554
3614,677,6.881054196491911
3615,658,7.5353857260077595
3616,653,7.128379078294101
3617,0,9.684825546377064
3618,435,2.098630015594165
3619,444,3.9438851486404403
3620,454,4.6078707497734195
3621,468,8.202857677801354
3622,481,1.2452670741312866
3623,492,1.147579939541028
3624,498,0.8225382471331755
3625,500,2.1387711106026863
3626,497,7.331964487618913
3627,488,7.464692827393245
3628,476,0.8713675425091361
3629,462,9.491731355289115
3630,450,9.035664814942589
3631,440,7.042637625264312
3632,432,2.926715733304719
3633,427,3.3621807801724923
3634,426,4.7185056107600865
3635,428,3.348422625012837
3636,432,2.997680165836152
3637,440,4.607742340028869
3638,448,8.733662249799565
3639,457,6.172394996440039
3640,465,7.9984874154119945
3641,471,3.3759570339508227
3642,478,3.8458704615602546
3643,484,2.213940679607016
3644,486,9.721618453162916
3645,487,6.469015357613981
3646,486,0.2089468767686986
3647,485,4.004124134138576
3648,483,1.4587917317313992
3649,480,6.719581784552206
3650,475,3.01888795609478
3651,471,7.086338196614865
3652,468,8.571155235586286
3653,466,8.006289764104551
3654,468,0.3660620691315408
3655,469,5.605978119023634
3656,473,3.9991496537686633
3657,475,1.767189227366699
3658,477,1.430599017805263
3659,477,6.794911196080076
3660,475,6.520158273751044
3661,468,9.010112200358932
3662,461,7.102472733545997
3663,460,1.8794195512367207
3664,462,3.4502635785215197
3665,469,5.722068521195263
3666,478,8.107517983927114
3667,488,3.069923014380227
3668,497,3.1112752050864256
3669,505,2.706190666472972
3670,508,3.7456623698165603
3671,507,8.749602759957106
3672,505,3.0924973599811167
3673,496,8.348874176972378
3674,492,3.30254889140718
3675,487,9.177338386659903
3676,484,9.912563877763516
3677,483,3.1720748824393374
3678,483,9.140990110832583
3679,485,9.269788667893907
3680,487,4.1322653671737
3681,489,7.895897993103538
3682,493,5.156699604869727
3683,494,3.2564355316068716
3684,494,9.819148983829077
3685,494,4.926410718440759
3686,494,8.027789931544607
3687,493,1.4138002306293562
3688,489,1.9853506767107976
3689,486,8.978192746676115
3690,481,5.316560711339471
3691,474,3.3041587162725183
3692,466,0.676573281474262
3693,461,7.304477688037632
3694,459,9.920165940929678
3695,457,0.382200846265337
3696,456,2.73936235398333
3697,456,6.68929683435151
3698,458,1.9805656358577783
3699,461,1.8797655849331751
3700,465,5.043799298362379
3701,468,3.208854064103206
3702,470,0.645492988344698
3703,474,4.4676473037688025
3704,478,8.951796926324931
3705,483,8.608975760122382
3706,488,5.183095624202312
3707,495,1.5198951873164868
3708,498,3.453791114401763
3709,504,5.455940911455861
3710,507,3.868807185430876
3711,508,8.346216962947944
3712,508,1.6452525749310243
3713,506,4.251425051192537
3714,505,9.992850688749284
3715,502,0.03470489704783697
3716,501,5.301169718287982
3717,501,4.379010159987877
3718,500,1.828747808456468
3719,501,8.925429259965671
3720,502,6.093093535574143
3721,502,6.813465142231903
3722,502,2.4908042435104916
3723,502,1.8816812407115546
3724,502,8.227392274265743
3725,502,8.013884050660335
3726,506,5.52340933527341
3727,508,8.465579268410599
3728,513,4.929471220526736
3729,519,9.750118698357149
3730,524,3.0043086933962515
3731,528,6.523426862201918
3732,528,7.048447571690286
3733,526,2.8382126714826406
3734,521,5.317451306477395
3735,512,3.7981768031599095
3736,500,8.187039161806046
3737,488,3.161346764596016
3738,481,8.910795922368905
3739,476,3.1176197306924336
3740,476,6.708691122115251
3741,478,9.94580519816877
3742,485,6.657476421906194
3743,494,1.8463021316254502
3744,504,1.0980041008975139
3745,513,2.015980485666262
3746,524,2.0580674483762196
3747,535,6.089229121979727
3748,546,8.080412603849416
3749,556,5.158331176282682
3750,560,3.3119846792965335
3751,560,6.915443399005536
3752,556,8.251793640645698
3753,546,4.674946170315739
3754,533,6.280933638802686
3755,514,4.522099069498391
3756,497,9.48706165801444
3757,480,5.165383839666027
3758,460,9.152410759865157
3759,450,1.9121532073343794
3760,449,7.5994766885880605
3761,451,8.247927582660122
3762,460,0.4523993759835765
3763,474,4.1197105580026
3764,493,9.187880204257734
3765,516,4.788018431606716
3766,540,6.45702505913464
3767,560,4.782757338510568
3768,577,1.2187740209572784
3769,588,3.2538249625834226
3770,591,5.680634812809052
3771,589,4.417017340672622
3772,581,3.0680295031394866
3773,568,4.410702360039201
3774,552,3.6967544292618126
3775,532,2.8519122641713768
3776,509,3.98796130084927
3777,490,7.852466817292331
3778,475,3.010911801947429
3779,465,9.205208344913004
3780,461,2.671279771332402
3781,468,8.020571929354656
3782,484,0.9841401129969918
3783,506,7.0716707474408524
3784,533,5.2794684987497575
3785,561,6.228526445852152
3786,592,3.2866314634074167
3787,619,8.755247795234038
3788,642,5.224991076465426
3789,657,7.528079326017664
3790,663,8.417381728186264
3791,658,0.022974122889078963
3792,646,8.64471917340473
3793,628,5.423490214444959
3794,605,1.7821842153894085
3795,580,5.132435728654039
3796,558,8.956696147626776
3797,543,0.436184913920894
3798,536,7.541311008076628
3799,537,0.6143412255625091
3800,546,8.449204075009975
3801,560,5.730374181956597
3802,581,2.7603984453260377
3803,602,1.5094613411217073
3804,624,7.5857873365189254
3805,642,2.531573345637068
3806,653,2.622984358338334
3807,656,2.3954072535273463
3808,652,1.3876096808711536
3809,638,5.512849781486047
3810,619,2.0209260149719777
3811,594,2.444202304165539
3812,568,9.745701497075691
3813,542,1.649141227109323
3814,522,6.527810638479212
3815,509,9.14320397765147
3816,509,2.3068946134684465
3817,518,0.473332242127007
3818,0,1.9969535063017085
3819,397,8.106673883862772
3820,291,2.2186526857795807
3821,230,1.5548787290340993
3822,193,0.13923062277837017
3823,185,6.181858452601201
3824,206,3.841439483332214
3825,254,8.789184228928564
3826,321,8.30334346637805
3827,406,5.932583372629889
3828,499,7.783023735719281
3829,586,8.96545494625097
3830,662,4.417724998834531
3831,718,8.11978501852715
3832,748,4.345091367112053
3833,748,5.663904175608614
3834,721,8.015414713675453
3835,667,5.614955213116093
3836,600,5.0766679806414405
3837,525,2.7493015311766333
3838,448,3.481510424602443
3839,381,5.902114549420007
3840,336,6.519350876947794
3841,313,0.153597468774751
3842,315,5.381850212825643
3843,343,3.1035205971350277
3844,393,5.3103616892777055
3845,462,2.391473007053442
3846,538,6.584663476535306
3847,615,4.8980223051767435
3848,685,5.21861113801092
3849,741,4.9711877467106635
3850,776,2.3782405547155827
3851,787,3.578943127066865
3852,775,5.042275071205172
3853,740,2.0640014780875937
3854,687,1.7382307058937685
3855,624,7.4021478269369805
3856,555,4.394242621480022
3857,488,6.631231777186802
3858,430,1.8371986909963356
3859,388,7.20841675188042
3860,368,0.8531957973648807
3861,372,7.081869952771589
3862,396,3.4671294333795277
3863,442,3.262040307963503
3864,499,3.063165271504551
3865,562,3.9774733419849806
3866,627,4.741825251186718
3867,684,1.1483085240480806
3868,729,3.886368309541599
3869,756,8.603931229349396
3870,764,4.91017312997637
3871,753,0.8429571445914008
3872,722,0.6528776538048953
3873,676,6.087711597696894
3874,619,7.735112073902339
3875,559,8.050751182125875
3876,507,9.622234098095708
3877,461,0.790293423751407
3878,429,2.793572721648576
3879,414,0.9990206834429416
3880,418,1.5005629904568796
3881,442,5.958646123539413
3882,484,9.17898455685135
3883,532,5.798773644548813
3884,581,0.378714162952527
3885,631,6.550867829658791
3886,673,8.381561602346128
3887,706,3.1430186393217507
3888,722,1.0084994100633726
3889,722,1.7179195693087057
3890,706,8.43551504355042
3891,674,2.5138541884875742
3892,633,7.82544657581907
3893,588,4.444820851927318
3894,543,4.867384159150849
3895,502,7.323633088660673
3896,473,4.237027967199111
3897,456,7.655928232533109
3898,454,2.238566385436913
3899,468,0.04471657605333412
3900,490,4.6776667974373565
3901,524,4.357268927005011
3902,560,2.24900976593424
3903,601,2.1769158618253703
3904,638,7.70662745626753
3905,668,2.9794303620715756
3906,689,0.981690362933012
3907,696,7.248787791284661
3908,690,2.1320469218512716
3909,673,5.87282669434652
3910,646,3.5459303578402523
3911,615,6.3383167183951095
3912,581,3.9245302833274187
3913,552,0.17041892936954461
3914,526,2.122006819007396
3915,509,2.9897373846234276
3916,505,7.651469377957792
3917,509,1.0527641587034342
3918,525,6.093280627088569
3919,550,5.3695452608021625
3920,580,5.666220800614705
3921,609,9.486273427661363
3922,640,5.270173425045838
3923,665,2.205120680171626
3924,685,1.2619025951379936
3925,693,4.2125337753206304
3926,693,8.462032765267022
3927,686,3.282701855030119
3928,672,5.67140950634244
3929,650,1.4161561498108122
3930,627,6.902666118799576
3931,605,2.82521708240254
3932,584,6.46515174486008
3933,568,6.8113783167457065
3934,558,1.9277980668819006
3935,558,6.195368774292509
3936,566,5.244416191751915
3937,581,0.44526943817148057
3938,601,3.610523721626695
3939,627,8.58608192193792
3940,653,2.500141596555978
3941,675,0.8336264575040153
3942,693,5.680887420781295
3943,708,7.228579806187043
3944,710,3.336228714526972
3945,708,2.6804693461549745
3946,694,3.8976865363860913
3947,680,2.1895314721787584
3948,665,2.392958880098204
3949,648,2.898910415704048
3950,633,6.989592041844932
3951,620,4.5031852068653855
3952,614,6.876403622731906
3953,613,7.031037140402148
3954,618,9.479242495081067
3955,628,9.6122034978017
3956,643,1.8335833134404367
3957,661,4.372729915547222
3958,680,1.2229911904309954
3959,700,5.90009678018804
3960,716,8.84074618150092
3961,726,8.217460694825203
3962,729,2.6327484260155587
3963,728,9.322424529222094
3964,720,9.232876606370741
3965,706,2.767029126078291
3966,687,0.10966975366457854
3967,669,2.511351128687085
3968,653,6.510391147404571
3969,638,4.5783384088009615
3970,629,6.833458530915079
3971,626,7.819177005166447
3972,627,8.3157845686653
3973,633,5.588954183519532
3974,644,7.169550566393799
3975,657,3.6204652684421257
3976,673,2.649544072068135
3977,686,5.286747925787054
3978,698,1.8714808459432541
3979,708,2.030701168185338
3980,711,9.062642995639367
3981,708,7.143354924088907
3982,698,0.6385461172379014
3983,686,8.140467958937442
3984,670,7.738080053344469
3985,653,4.243529415097747
3986,637,3.7702677130921924
3987,622,3.092519357116139
3988,610,2.67659118010954
3989,605,0.6565655552679761
3990,603,1.5844434349210856
3991,606,8.304910570623408
3992,613,8.93744361049934
3993,620,4.612899153733099
3994,630,4.592571143491568
3995,639,5.3899926435608965
3996,641,2.9525467380828463
3997,645,3.347312919186609
3998,648,5.629929965461738
3999,645,7.061211398477399
4000,634,3.5648518784474947
4001,616,4.691323747970193
4002,603,2.8934281006852336
4003,586,8.158318860534106
4004,564,1.8119605847929532
4005,552,7.1632162194898825
4006,538,4.814712862789219
4007,537,5.53859026128946
4008,541,0.38822293034612043
4009,547,3.4737597258224784
4010,556,3.429698975836062
4011,564,2.1911862083912825
4012,572,5.987719253714829
4013,579,3.386236391405424
4014,581,6.1356393383895576
4015,582,6.7718963650741015
4016,580,8.280459510642943
4017,572,1.0264246392833787
4018,561,0.5447349152662428
4019,0,5.3682346588624075
4020,697,0.29576958649413454
4021,700,1.1599833672026971
4022,696,7.051375725489095
4023,690,3.540079535776155
4024,680,0.45089232577356864
4025,668,6.420923421586999
4026,657,9.352321925142169
4027,646,5.012079231751532
4028,636,0.6082718107450358
4029,627,9.935827783888296
4030,621,7.122291660015239
4031,618,8.721546639180062
4032,617,5.076899696610477
4033,619,1.0479905949572244
4034,624,7.857215786473619
4035,628,1.2805556656035555
4036,633,6.79032119093415
4037,637,2.3960372074337966
4038,638,9.48730872194413
4039,637,0.9170041643557125
4040,634,1.4661106470444607
4041,627,6.626789101076898
4042,619,5.895489578869524
4043,605,7.093588760206555
4044,592,7.116560439374354
4045,581,7.288517621957078
4046,570,6.5211327853094385
4047,560,2.141317328054868
4048,554,3.988399460134029
4049,548,6.312488249143664
4050,546,9.247350894016343
4051,547,8.677381961729525
4052,552,5.365364233822268
4053,556,7.307088284032095
4054,560,5.304139506131715
4055,562,3.3179633701736666
4056,566,2.7584404761081127
4057,567,0.6458842889329364
4058,562,2.7447284028784225
4059,559,1.131879436776284
4060,553,7.258648739231301
4061,545,9.844490704984803
4062,535,6.1419985858546555
4063,525,2.122049738750964
4064,516,8.321872346083293
4065,508,3.1562300938448584
4066,504,4.0689300649127835
4067,500,8.281844765396118
4068,501,3.3658884931941158
4069,505,1.1200494995375854
4070,509,3.949026091113974
4071,516,0.0005370085947697945
4072,524,3.6945977600233215
4073,532,5.979703401750691
4074,537,3.5516495882628707
4075,542,2.676034604542843
4076,544,7.795563759222022
4077,543,9.448615847843191
4078,538,9.197326735610567
4079,533,1.6759421697965338
4080,524,6.0392419763647105
4081,514,5.960250091319679
4082,507,2.395890054075076
4083,498,0.9392747180276984
4084,494,3.795383295353867
4085,489,0.4032462250375768
4086,488,6.101552207415908
4087,492,6.428369520893574
4088,495,9.517181864940083
4089,504,4.790582869036372
4090,511,3.8208733909482717
4091,518,7.063027246106617
4092,524,3.336576821361996
4093,530,0.10382758022098759
4094,534,0.2690652810558092
4095,535,3.020640952149294
4096,534,2.251705123885166
4097,531,8.295990826194545
4098,524,0.9280121048137202
4099,518,4.20842249000049
4100,509,1.606572071858221
4101,498,6.624566219004848
4102,494,0.2380377365321351
4103,488,2.079716449137987
4104,486,0.7286872039958237
4105,486,0.012265629090317809
4106,488,9.123166778489953
4107,494,5.0347166193756525
4108,498,0.8929866538235331
4109,506,9.635072204253131
4110,513,0.7813453136760851
4111,520,1.3864776577780424
4112,526,9.128452384881482
4113,533,2.7102012172625556
4114,535,5.7323136852703716
4115,535,2.7902049603893553
4116,533,0.0875006240620757
4117,528,2.526428727387906
4118,522,9.072157939357314
4119,513,9.941617651262042
4120,506,3.6668101482959536
4121,499,0.06029204852643133
4122,497,9.290644757037015
4123,496,0.7025360950569692
4124,498,1.1864315087600574
4125,502,8.367249786694682
4126,507,2.645414526712626
4127,512,8.697787873152185
4128,518,2.18746980155035
4129,522,3.855186160202666
4130,525,0.39489075230976667
4131,528,0.6692701277047086
4132,528,9.767625188483326
4133,528,6.166525440998956
4134,525,1.6731277714434944
4135,521,3.2940410233728
4136,516,2.452272475963506
4137,509,1.4077500189344927
4138,506,5.984051842242084
4139,502,0.6473990421060072
4140,502,3.406114422574915
4141,504,9.667877782480918
4142,506,9.423857112656746
4143,508,3.907109956398225
4144,513,2.7897868407124427
4145,516,3.8956502118547753
4146,521,1.3219595189394329
4147,523,2.3895400727843197
4148,525,9.793722509705509
4149,526,2.8401035774858374
4150,526,7.388326000232144
4151,526,7.780883547974575
4152,524,1.553167541679128
4153,522,1.4774975419373337
4154,518,7.4161776890573545
4155,514,5.068892360640611
4156,511,6.740586238862694
4157,508,9.487774221622667
4158,506,0.1700322060507009
4159,505,6.316557335904561
4160,502,5.140527581396379
4161,504,6.700645429576417
4162,506,0.32469764523368694
4163,509,5.320116486237962
4164,514,6.887166724516646
4165,520,4.85515626242962
4166,525,4.357044266349255
4167,531,1.6382780400457087
4168,535,8.306914059555703
4169,540,6.684416934261845
4170,534,5.979729772701723
4171,532,2.0593929602607575
4172,526,6.971974521137492
4173,519,9.933574761072885
4174,511,9.648450292717683
4175,502,2.6809266858075986
4176,497,6.7616046905674
4177,494,5.210868627125686
4178,493,3.323702204125567
4179,495,0.12344816398891512
4180,499,7.384612463444111
4181,508,3.7831900966387577
4182,516,3.0938632175428693
4183,524,9.903299596265274
4184,532,3.5148500432660645
4185,535,0.33410510487421163
4186,537,4.765056560483059
4187,536,7.445443644748777
4188,534,8.336794460380222
4189,529,5.30373683288116
4190,523,9.9166186874062
4191,513,7.703872617043485
4192,506,4.564377424477682
4193,499,9.437990488905507
4194,495,6.9702782817673565
4195,493,2.7555001033562987
4196,494,2.4070200761485405
4197,496,8.606581274670852
4198,501,1.915241260093954
4199,508,4.797551145363981
4200,514,3.0676305544080718
4201,521,5.104391234727106
4202,526,4.1007180738634545
4203,532,5.585686437125037
4204,535,8.339988233140954
4205,536,9.276927365058347
4206,535,3.710783002958884
4207,533,4.09404141503428
4208,526,3.7846903075668203
4209,521,2.3794319702609434
4210,513,6.306666124036382
4211,506,0.8272928405395685
4212,499,7.383303685883278
4213,497,5.679139165660933
4214,497,6.770206099333325
4215,498,3.508736369571148
4216,504,1.7186449444277319
4217,509,2.9568829835550114
4218,516,0.9282284581872391
4219,523,4.241910208490989
4220,0,4.824928049064228
4221,481,5.784074678120343
4222,477,4.89977905049072
4223,475,4.280741833709067
4224,475,2.364257743106335
4225,476,1.793154952769358
4226,478,2.097206287174944
4227,480,2.4389554849792394
4228,484,0.13223652140524234
4229,487,6.923043188718747
4230,489,2.1027726286519766
4231,490,7.59554061391106
4232,493,1.4548728735876004
4233,493,6.695369836710377
4234,489,3.829425481683577
4235,487,4.452495242403003
4236,485,4.68076752558229
4237,484,8.11571572869263
4238,483,1.5564818670114522
4239,483,9.783768739675091
4240,483,5.838208537811722
4241,483,6.497049077017358
4242,484,3.2520346362223385
4243,486,0.46513676169838813
4244,487,6.251583065071216
4245,489,3.5039734203377426
4246,493,0.8181869112662099
4247,495,9.969993468745171
4248,496,0.7888531683589828
4249,497,5.205631769665597
4250,497,5.40860188673687
4251,496,9.057568204186346
4252,495,8.24539988649622
4253,493,2.55542333065947
4254,488,3.5655126404990622
4255,487,5.042540557825481
4256,485,0.00006181333788601862
4257,484,3.803690524240564
4258,484,2.5161363240893664
4259,483,2.2605205742093815
4260,484,9.809572112707459
4261,485,1.782265824125464
4262,486,1.0401687590808728
4263,487,6.15397890349787
4264,489,9.02574583955454
4265,493,3.653800669347236
4266,493,3.350466411855848
4267,493,1.6695810991553994
4268,490,3.891167775242228
4269,489,8.620919685686761
4270,489,7.4423003274322275
4271,488,6.224325883092652
4272,488,1.2974834483839848
4273,487,8.205582408423318
4274,487,7.178005300931285
4275,488,2.037762785244026
4276,493,2.0387062051296367
4277,493,9.811391808063677
4278,497,6.882635947138156
4279,502,3.6036158695316445
4280,506,4.212537443483906
4281,510,4.801727894143852
4282,513,1.3819410761683626
4283,514,8.467344647789417
4284,516,8.670417248889121
4285,516,3.4686522091544236
4286,518,4.639037791502972
4287,519,8.790696631275512
4288,522,5.5173086619848455
4289,523,0.9659061489527421
4290,525,9.574330302967585
4291,526,6.115961601928697
4292,528,6.556762225547271
4293,528,2.6624435157917525
4294,528,1.4180526498213197
4295,528,5.767424049565523
4296,526,5.2002551536138135
4297,525,6.4027603968166265
4298,524,3.4996479720232343
4299,523,1.9183931284799738
4300,522,1.093931740800811
4301,523,4.038126815521776
4302,525,1.216636170939942
4303,530,8.22143991589024
4304,537,9.916199671715118
4305,549,9.252453760677735
4306,560,2.552054302414317
4307,576,0.9096094721579462
4308,588,1.8369000828981652
4309,597,1.8600584185595537
4310,603,5.645786002576452
4311,605,4.432916410405399
4312,601,3.7250134287746395
4313,595,5.898645786346219
4314,586,3.0690282899770005
4315,574,2.3295603794962982
4316,562,6.914456804233979
4317,555,0.18109387723599157
4318,547,8.270390509147385
4319,541,7.502539265165797
4320,536,4.632442468998034
4321,534,1.4883465348581093
4322,533,8.253619092427629
4323,533,2.574134714474199
4324,533,0.502002977129199
4325,532,0.5857494648596373
4326,531,3.5514227710827195
4327,528,5.761571859102164
4328,526,2.9569512705957957
4329,523,1.1483416224664778
4330,519,3.248188523286324
4331,514,7.455127167547553
4332,510,8.141012478558398
4333,507,7.891757063158005
4334,505,1.6923191456111164
4335,502,1.983977349589321
4336,502,0.4762733991398105
4337,502,4.934146705400937
4338,505,4.599685704481226
4339,506,2.1955826303031656
4340,507,3.5833622064037263
4341,508,9.962557091016082
4342,509,6.217102089890787
4343,509,4.804060584159464
4344,508,3.7814015388400235
4345,508,3.4430316187060384
4346,506,8.679998996024816
4347,505,9.863899324940526
4348,502,4.661015672087312
4349,501,5.455625059546183
4350,499,4.232670742218816
4351,498,4.553441495588393
4352,497,5.775748222567558
4353,496,7.770447403932897
4354,495,4.482966847502759
4355,494,3.455879596728899
4356,494,5.920142816426877
4357,494,6.434996627691564
4358,495,9.070900506436576
4359,496,9.95466792195021
4360,496,0.9614921290781453
4361,496,5.070325618276326
4362,496,4.823236326485414
4363,497,2.7234145954795386
4364,498,2.6927822557412084
4365,501,1.6682877199863366
4366,505,6.348117351755185
4367,507,1.5795595960257969
4368,508,4.674993740673326
4369,509,9.67620451214444
4370,509,2.156753200939643
4371,508,6.851029917034925
4372,507,3.926532253684647
4373,502,9.302019056773396
4374,499,5.069842391760686
4375,495,1.565912105113867
4376,489,1.475086864603652
4377,486,0.8696307036425743
4378,483,3.9845744776767056
4379,481,8.443039247759852
4380,481,2.002095642486932
4381,484,4.37283100831557
4382,493,4.192662499335727
4383,507,7.453303013047925
4384,526,4.382878121308855
4385,553,5.725566579151566
4386,582,7.822774848383802
4387,615,5.951972913729846
4388,648,2.8061522161398367
4389,676,5.73310053581074
4390,699,4.761136383475222
4391,714,5.1088874504609265
4392,721,2.5537380310447078
4393,723,6.931970654341804
4394,720,9.902511898327734
4395,715,3.6641240921986618
4396,712,4.924028954744961
4397,715,2.649586648175033
4398,727,0.8522333579348507
4399,746,9.90009745328356
4400,764,5.836275209596633
4401,775,3.3903565948075687
4402,769,7.473792419619494
4403,745,5.723144389275103
4404,694,9.115061483160877
4405,624,6.379930789280131
4406,538,4.6080699562414935
4407,444,7.000930782484593
4408,349,5.066069697470783
4409,267,9.714208590569534
4410,201,7.19970793142765
4411,162,8.721934108602445
4412,149,5.98958253070016
4413,166,1.8432955871203105
4414,208,1.404091816310371
4415,276,3.5763220083786407
4416,360,2.032852555625446
4417,608,3.408395931413457
4418,680,4.265266724308421
4419,716,1.6632903408946031
4420,721,6.5818392478614545
4421,0,0.404706637896175
4422,546,7.310892460119469
4423,532,1.0863800846534044
4424,532,8.62537203430221
4425,541,8.03427701200434
4426,556,2.3998024130762152
4427,577,1.1990665571718728
4428,601,4.445052529161073
4429,626,0.790448762806204
4430,648,2.9748858971166903
4431,666,5.361363670461479
4432,681,8.215072262794598
4433,689,2.764524360169105
4434,689,2.706430935128159
4435,682,9.450762208976588
4436,672,3.6544190776042695
4437,655,9.822376179774942
4438,638,4.057718222585416
4439,624,7.1193589774046835
4440,609,6.93014309175495
4441,603,3.175926610816724
4442,600,5.2597348695212975
4443,606,0.3094659002002276
4444,617,8.693272321367363
4445,631,0.6154606800044027
4446,646,8.926247608872576
4447,662,0.38641081494245055
4448,675,7.255871690123121
4449,686,2.846808399862839
4450,693,7.3798564718910065
4451,696,7.881036092533494
4452,694,4.742007312753056
4453,690,4.768149604583678
4454,682,4.114933508136785
4455,674,8.62033463972888
4456,664,1.6717798971136744
4457,655,2.6455267791578008
4458,649,3.5811331255707013
4459,644,9.418743741885631
4460,644,4.578200427351462
4461,648,6.4293862913290045
4462,653,3.742052979934136
4463,662,6.86567226713864
4464,670,6.68816251328786
4465,679,8.59517794560915
4466,687,0.48849163459709244
4467,693,7.413898023149546
4468,696,3.419570805290235
4469,694,0.9599124771798806
4470,692,6.147938754795064
4471,685,9.111525326457599
4472,676,5.606802681776104
4473,666,8.462818555638666
4474,656,6.735082842759741
4475,648,6.588224006814832
4476,639,2.208779138907919
4477,634,3.007441595513596
4478,632,7.241939069101195
4479,632,9.256270050187464
4480,633,1.014932129383106
4481,636,1.5383552534472256
4482,638,3.785564147178464
4483,644,4.327316476545979
4484,648,0.31583073656761274
4485,648,5.093519560587437
4486,648,9.61458025651937
4487,645,6.443428773007051
4488,641,4.611728363070022
4489,634,3.6216647098322285
4490,627,0.5870415537848084
4491,618,6.687855685675251
4492,608,6.970622643134847
4493,598,3.063087869330159
4494,589,2.0901677459651347
4495,580,1.189381357305026
4496,572,6.745697889712947
4497,567,3.845174092234853
4498,561,7.777775571506266
4499,559,9.40443913313015
4500,559,0.8948685284854574
4501,560,5.798494156206509
4502,562,7.0328190483922715
4503,567,5.7200440116454825
4504,569,9.104164612758119
4505,572,8.071844232553222
4506,576,6.273886594830604
4507,577,2.379511980493727
4508,576,7.298202694566656
4509,572,3.0602655206232243
4510,568,0.1598214385259955
4511,561,5.956265713220499
4512,556,9.559743892594845
4513,549,0.7947891605871749
4514,542,3.637209823330576
4515,535,3.124192984523204
4516,528,7.45989045185164
4517,524,3.991281498141377
4518,521,5.957721771274755
4519,518,3.1518515107429934
4520,516,5.654274637722764
4521,517,8.472029086879754
4522,519,9.249736837057853
4523,523,3.152825108829347
4524,526,7.055745166101113
4525,533,8.414998294213703
4526,536,2.185897027253463
4527,540,4.399975017771258
4528,541,1.9391530330653106
4529,542,9.427573310084094
4530,540,0.02804845708541004
4531,536,1.4861498395569384
4532,533,4.000834528555826
4533,528,9.43315230828861
4534,523,3.30398650613573
4535,518,8.874112697179337
4536,513,5.551611453542094
4537,508,4.374345553986263
4538,505,2.843021942186097
4539,500,4.974130803708789
4540,499,8.555292992925693
4541,499,1.0848578790394492
4542,505,7.253207533661921
4543,508,8.733994355360181
4544,514,5.2955350504864995
4545,523,6.579847370624982
4546,530,0.3909255837889747
4547,535,0.7373973008454082
4548,541,8.443398181257809
4549,543,7.249819577522438
4550,544,0.29536175631302397
4551,542,8.43773293349144
4552,537,2.3852573457090065
4553,532,2.8072436284217006
4554,524,8.588680778983836
4555,516,8.37888633128121
4556,508,0.47367096648252893
4557,501,6.750116900409702
4558,496,7.423726464069384
4559,494,8.982788283394886
4560,493,4.4677164109855205
4561,494,1.39718020536727
4562,497,1.5840357220103152
4563,502,7.14727013229899
4564,508,6.65493751019262
4565,514,8.677054357329645
4566,521,0.3218954627224302
4567,525,0.3260575154275913
4568,528,8.691030582863474
4569,531,9.165239615911911
4570,531,0.6128909970794805
4571,530,1.3331601358635958
4572,526,2.390900927808779
4573,524,4.459485324266335
4574,521,8.638872589130832
4575,517,4.094207024927936
4576,514,3.260950923773971
4577,511,2.207150474240047
4578,509,9.843047335769988
4579,508,1.4267824962237374
4580,509,7.092923423800494
4581,511,0.9355038724608766
4582,516,1.8071908324247898
4583,519,6.112615642101639
4584,522,0.6703277075108471
4585,524,9.122888319419104
4586,524,5.655779132703684
4587,523,4.789270180494796
4588,521,6.513315797467348
4589,516,3.6709684220339245
4590,509,6.779737876648291
4591,506,2.594000930508631
4592,502,2.2799895225386635
4593,500,8.448069842767268
4594,501,3.2083066563588636
4595,505,0.24489944859028112
4596,508,8.190882828983153
4597,514,5.141899978237026
4598,521,8.572315617886911
4599,526,1.2038675230716511
4600,533,7.322427625004884
4601,536,0.9354647357954993
4602,540,0.6030281072660126
4603,541,7.385761316726811
4604,541,5.9177293121573875
4605,537,7.064964318157873
4606,534,0.44464964769779014
4607,528,8.34748675138516
4608,522,9.71161252691922
4609,516,4.770547115655559
4610,511,9.474652335976705
4611,507,8.780620584252407
4612,506,9.476471994361255
4613,506,0.5065585609995238
4614,507,3.8397414802346885
4615,511,7.185202656750103
4616,516,8.65112427979912
4617,522,9.170821310492826
4618,526,4.169525341141755
4619,532,3.7787161803307145
4620,535,3.0864933366495184
4621,535,5.586978945526777
4622,0,8.177385410859285
4623,532,5.560693517529945
4624,535,2.7539898154915976
4625,536,9.142390651722227
4626,536,3.7741003003379747
4627,535,1.2052864781584294
4628,533,3.0709710011947733
4629,528,2.5550580825052793
4630,524,9.21458946572801
4631,521,0.760333211998292
4632,516,2.0798299353273397
